"Time (s)","Acceleration x (m/s^2)","Acceleration y (m/s^2)","Acceleration z (m/s^2)"
4.038595100E-2,-1.206879973E0,-6.184549332E0,-3.538386583E0
4.291121100E-2,-1.098903775E0,-6.148357868E0,-3.694219112E0
4.543918000E-2,-9.672985673E-1,-6.194120407E0,-3.821038723E0
4.796157600E-2,-8.641080856E-1,-6.165406704E0,-3.996013880E0
5.048678400E-2,-7.492526174E-1,-6.088537216E0,-4.103690624E0
5.301204400E-2,-7.325028181E-1,-6.062216282E0,-4.204488277E0
5.553725300E-2,-6.942176819E-1,-6.019145489E0,-4.249952316E0
5.806240900E-2,-6.535396576E-1,-5.983253002E0,-4.295415878E0
6.058761700E-2,-6.583253145E-1,-5.906682491E0,-4.343272209E0
6.311282600E-2,-7.061817646E-1,-5.880062580E0,-4.328915119E0
6.564084700E-2,-8.066803217E-1,-5.863312721E0,-4.264308929E0
6.816324200E-2,-8.353942037E-1,-5.860919952E0,-4.218845367E0
7.068845100E-2,-9.601200819E-1,-5.856134415E0,-4.173381805E0
7.321397200E-2,-1.086939692E0,-5.865705490E0,-4.101297855E0
7.573949200E-2,-1.199701428E0,-5.923432350E0,-4.055834293E0
7.826506500E-2,-1.295414329E0,-6.009573936E0,-3.866502285E0
7.995522200E-2,-1.343270779E0,-6.098108292E0,-3.775574923E0
8.331454400E-2,-1.415354609E0,-6.215655804E0,-3.564707518E0
8.584532600E-2,-1.463211060E0,-6.347260952E0,-3.329911709E0
8.837053400E-2,-1.479960799E0,-6.507879257E0,-3.049652576E0
9.089298200E-2,-1.499103427E0,-6.608377934E0,-2.728715181E0
9.341813800E-2,-1.479960799E0,-6.778567314E0,-2.388635159E0
9.594339900E-2,-1.463211060E0,-6.948457718E0,-2.043769598E0
9.850808600E-2,-1.422533035E0,-7.077969551E0,-1.600499272E0
1.009938150E-1,-1.333699465E0,-7.264908791E0,-1.265205026E0
1.035585030E-1,-1.245165110E0,-7.449155807E0,-1.030409217E0
1.060442320E-1,-1.202094316E0,-7.621738434E0,-8.626125455E-1
1.085694400E-1,-1.137488008E0,-7.767999649E0,-7.525427341E-1
1.111239190E-1,-1.003190875E0,-7.911569118E0,-6.711867452E-1
1.136784510E-1,-8.258228898E-1,-8.079365730E0,-6.062814593E-1
1.162329300E-1,-7.181459069E-1,-8.151150703E0,-5.105685592E-1
1.187097010E-1,-6.367899179E-1,-8.249256134E0,-4.411766827E-1
1.212349610E-1,-5.575276613E-1,-8.256434441E0,-4.866403043E-1
1.237601690E-1,-5.359922647E-1,-8.244470596E0,-4.722833633E-1
1.263572010E-1,-6.152545214E-1,-8.065009117E0,-7.573283911E-1
1.287710550E-1,-3.804588020E-1,-8.024031639E0,-8.865407705E-1
1.313356900E-1,-1.671984792E-1,-8.244470596E0,-5.249254704E-1
1.338609510E-1,-5.922235921E-2,-8.330910683E0,-2.638086975E-1
1.363861070E-1,-5.682953820E-2,-8.328517914E0,-2.997010350E-1
1.389113150E-1,-1.432702541E-1,-8.287541389E0,-3.909274042E-1
1.414713150E-1,-3.275175989E-1,-8.208578110E0,-5.033900738E-1
1.440312630E-1,-5.670989752E-1,-8.203792572E0,-6.903293133E-1
1.465494920E-1,-8.282157183E-1,-8.076972961E0,-8.362914920E-1
1.490122010E-1,-1.096511006E0,-7.997710705E0,-1.035194874E0
1.515374090E-1,-1.513460279E0,-7.849355698E0,-1.246062398E0
1.541167320E-1,-1.805683732E0,-7.765606880E0,-1.303490162E0
1.565877740E-1,-1.927717686E0,-7.775177956E0,-1.087836981E0
1.591130340E-1,-2.040479422E0,-7.784749508E0,-8.123632669E-1
1.616382420E-1,-2.136192322E0,-7.777570724E0,-5.679962635E-1
1.641634510E-1,-2.136192322E0,-7.695915699E0,-3.619144261E-1
1.666886590E-1,-1.999801517E0,-7.686344624E0,-2.662015259E-1
1.692138150E-1,-1.841576099E0,-7.763214111E0,-2.614158690E-1
1.717390240E-1,-1.683649778E0,-7.803892136E0,-3.475574851E-1
1.742642320E-1,-1.477568030E0,-7.892426491E0,-5.608177781E-1
1.769078260E-1,-1.297807217E0,-8.009675026E0,-7.740781307E-1
1.794330860E-1,-1.098903775E0,-8.146365166E0,-9.849455953E-1
1.819582420E-1,-8.739784956E-1,-8.237292290E0,-1.236491084E0
1.844835030E-1,-6.367899179E-1,-8.371588707E0,-1.514357686E0
1.870087110E-1,-4.857429862E-1,-8.488837242E0,-1.732403636E0
1.895339190E-1,-2.006980032E-1,-8.582456589E0,-2.019841433E0
1.920590760E-1,1.058823988E-1,-8.620741844E0,-2.379063845E0
1.945843360E-1,4.459623098E-1,-8.673383713E0,-2.824727058E0
1.971094920E-1,7.310073376E-1,-8.742775917E0,-3.195913792E0
1.996347010E-1,1.073779106E0,-8.757132530E0,-3.615255833E0
2.021599090E-1,1.433001637E0,-8.836395264E0,-4.051048756E0
2.046851170E-1,1.713261008E0,-8.910572052E0,-4.388735771E0
2.072103260E-1,2.012662888E0,-8.968000412E0,-4.681258202E0
2.097750130E-1,2.158924341E0,-9.003892899E0,-4.853541851E0
2.122607420E-1,2.230708838E0,-9.066105843E0,-4.896612644E0
2.147859510E-1,2.312064886E0,-9.233902931E0,-4.652245522E0
2.173111590E-1,2.369791746E0,-9.372985840E0,-4.144668102E0
2.198363670E-1,2.221137524E0,-9.308079720E0,-3.579064369E0
2.223615760E-1,1.804188251E0,-9.073284149E0,-3.282055378E0
2.248867840E-1,1.330110312E0,-8.920144081E0,-2.985046148E0
2.274119920E-1,8.748757839E-1,-8.764310837E0,-2.711965322E0
2.299372010E-1,5.778666735E-1,-8.673383713E0,-2.513062000E0
2.324624090E-1,3.837489188E-1,-8.539086342E0,-2.434098721E0
2.349876170E-1,1.824527234E-1,-8.426624298E0,-2.489133835E0
2.375128260E-1,7.477571070E-2,-8.270791054E0,-2.585145712E0
2.400380340E-1,-1.794616925E-3,-8.146365166E0,-2.654537678E0
2.425632420E-1,-5.443671346E-2,-8.016853333E0,-2.798406124E0
2.450884510E-1,-2.333002165E-2,-7.885247707E0,-2.987439156E0
2.476136590E-1,3.409772366E-2,-7.731808186E0,-3.176771164E0
2.501388670E-1,1.752742529E-1,-7.561917782E0,-3.375674486E0
2.526640760E-1,3.646063507E-1,-7.394121170E0,-3.543172121E0
2.551892840E-1,5.228317380E-1,-7.216753006E0,-3.677469254E0
2.577144920E-1,6.903293133E-1,-7.094718933E0,-3.818645954E0
2.602791800E-1,8.341978192E-1,-6.965506554E0,-3.861716747E0
2.627649090E-1,9.634101987E-1,-6.828816891E0,-3.919443607E0
2.652901170E-1,1.016351461E0,-6.689733982E0,-3.864109516E0
2.678153260E-1,9.873384237E-1,-6.582056999E0,-3.818645954E0
2.703405340E-1,8.533403873E-1,-6.503093719E0,-3.801896095E0
2.728657420E-1,7.166503668E-1,-6.428916454E0,-3.888336897E0
2.753909510E-1,5.802595019E-1,-6.387938976E0,-3.993621111E0
2.779161590E-1,3.837489188E-1,-6.409474373E0,-4.161417484E0
2.804413670E-1,1.417747438E-1,-6.546164513E0,-4.403092861E0
2.829665760E-1,-5.443671346E-2,-6.857530594E0,-4.625924587E0
2.854917840E-1,-2.964109182E-1,-7.236194611E0,-4.887041092E0
2.880169920E-1,-5.503492355E-1,-7.722237110E0,-5.085944653E0
2.905422010E-1,-8.497511148E-1,-8.287541389E0,-5.299204826E0
2.930674090E-1,-1.194915771E0,-8.860322952E0,-5.522036552E0
2.955926170E-1,-1.546959877E0,-9.487840652E0,-5.778367519E0
2.981178260E-1,-1.858325839E0,-1.012732315E1,-6.130411625E0
3.006430340E-1,-2.088335991E0,-1.071206856E1,-6.520740986E0
3.031682420E-1,-2.351845503E0,-1.123878860E1,-6.861119747E0
3.057329300E-1,-2.507678032E0,-1.177567863E1,-7.179664135E0
3.082186590E-1,-2.660818815E0,-1.229522038E1,-7.308876991E0
3.107438670E-1,-2.773580551E0,-1.279352570E1,-7.282555580E0
3.132690760E-1,-2.807080030E0,-1.323200989E1,-7.189235687E0
3.157942840E-1,-2.819044113E0,-1.361037540E1,-7.002296448E0
3.183194920E-1,-2.833401203E0,-1.390259838E1,-6.698108673E0
3.208447010E-1,-2.819044113E0,-1.408714485E1,-6.341279030E0
3.233699090E-1,-2.816651344E0,-1.418285847E1,-5.929115295E0
3.258951170E-1,-2.785544634E0,-1.416850090E1,-5.548357487E0
3.284203260E-1,-2.699103832E0,-1.420708561E1,-5.265705109E0
3.309455340E-1,-2.560320139E0,-1.416371536E1,-5.169693470E0
3.334707420E-1,-2.486142635E0,-1.402732468E1,-5.253741264E0
3.359959510E-1,-2.411666155E0,-1.387388515E1,-5.541179180E0
3.385211590E-1,-2.416451693E0,-1.373988628E1,-6.070590973E0
3.410463670E-1,-2.486142635E0,-1.358405399E1,-6.722036839E0
3.435715760E-1,-2.593819857E0,-1.338036537E1,-7.304090977E0
3.460967840E-1,-2.823829889E0,-1.326311684E1,-7.888837337E0
3.486219920E-1,-3.082553864E0,-1.318176079E1,-8.226524353E0
3.511472010E-1,-3.348456144E0,-1.303549957E1,-8.420641899E0
3.536724090E-1,-3.547359467E0,-1.295175076E1,-8.521140099E0
3.561976170E-1,-3.793820381E0,-1.293500137E1,-8.434998512E0
3.587228260E-1,-3.978366852E0,-1.288953781E1,-8.276773453E0
3.612875130E-1,-4.098307133E0,-1.291585827E1,-7.896015644E0
3.637732420E-1,-4.086342812E0,-1.293260860E1,-7.471887589E0
3.662984510E-1,-4.098307133E0,-1.291585827E1,-6.885047913E0
3.688236590E-1,-4.040580273E0,-1.284885979E1,-6.415456772E0
3.713488670E-1,-3.956831455E0,-1.279831123E1,-5.998507500E0
3.738740760E-1,-3.818047523E0,-1.271695518E1,-5.636891842E0
3.763992840E-1,-3.724428415E0,-1.268584824E1,-5.430809975E0
3.789244920E-1,-3.671786308E0,-1.263799191E1,-5.311169147E0
3.814497010E-1,-3.667000771E0,-1.268584824E1,-5.248955727E0
3.839749090E-1,-3.772284985E0,-1.270977688E1,-5.394917965E0
3.865001170E-1,-3.889832258E0,-1.284377480E1,-5.572285652E0
3.890253260E-1,-4.016652107E0,-1.298285770E1,-5.969793320E0
3.915505340E-1,-4.138985157E0,-1.322004604E1,-6.305386543E0
3.940757420E-1,-4.294518471E0,-1.348834133E1,-6.539883614E0
3.966009510E-1,-4.416851521E0,-1.374228001E1,-6.841977119E0
3.991261590E-1,-4.462315083E0,-1.396511078E1,-7.031010151E0
4.016513670E-1,-4.488636017E0,-1.411825180E1,-7.191628456E0
4.041765760E-1,-4.435994148E0,-1.422144222E1,-7.263412952E0
4.067017840E-1,-4.261018753E0,-1.434586906E1,-7.385746002E0
4.092269400E-1,-3.880260944E0,-1.437458324E1,-7.502994537E0
4.117522010E-1,-3.348456144E0,-1.430758381E1,-7.618149281E0
4.142774090E-1,-2.632104874E0,-1.414696598E1,-7.579565048E0
4.168026170E-1,-1.843968987E0,-1.387867069E1,-7.462316513E0
4.193277740E-1,-1.077368379E0,-1.358883953E1,-7.131807804E0
4.218529820E-1,-4.546363056E-1,-1.318176079E1,-6.702894211E0
4.243782420E-1,8.673982322E-2,-1.271456242E1,-6.252445698E0
4.269033990E-1,4.674977362E-1,-1.224018478E1,-5.895616055E0
4.294286070E-1,6.687939167E-1,-1.170598793E1,-5.667998791E0
4.319538670E-1,6.640082598E-1,-1.110239792E1,-5.536393166E0
4.344790760E-1,5.611169338E-1,-1.054427242E1,-5.474180222E0
4.370042840E-1,2.210369855E-1,-1.008185863E1,-5.512465000E0
4.395689190E-1,-2.270190418E-1,-9.602696419E0,-5.622535229E0
4.420546490E-1,-7.588238716E-1,-9.207581520E0,-5.795117378E0
4.445799090E-1,-1.427318692E0,-8.831310272E0,-5.991328716E0
4.471050650E-1,-2.143370867E0,-8.452944756E0,-6.123233318E0
4.496302740E-1,-2.898007393E0,-8.127222061E0,-6.230910301E0
4.521554820E-1,-3.611965895E0,-7.784749508E0,-6.197410583E0
4.546806900E-1,-4.400101662E0,-7.449155807E0,-6.120840549E0
4.572058990E-1,-5.087440014E0,-7.087540627E0,-5.972186089E0
4.597311070E-1,-5.674279690E0,-6.804888725E0,-5.708676815E0
4.622563150E-1,-6.218048573E0,-6.550950050E0,-5.325525761E0
4.647815240E-1,-6.620641232E0,-6.294619083E0,-4.983053207E0
4.673067320E-1,-6.915257454E0,-6.093322754E0,-4.678865433E0
4.698319400E-1,-7.111767769E0,-5.959324837E0,-4.530211449E0
4.723571490E-1,-7.250551701E0,-5.810670853E0,-4.441677094E0
4.748823570E-1,-7.250551701E0,-5.695815086E0,-4.625924587E0
4.774075650E-1,-7.291229725E0,-5.624030590E0,-4.834399223E0
4.799327740E-1,-7.276872635E0,-5.487340450E0,-5.131408215E0
4.824579820E-1,-7.267301559E0,-5.449055195E0,-5.505286694E0
4.849831900E-1,-7.214659214E0,-5.513661385E0,-5.766403675E0
4.875083990E-1,-7.154839039E0,-5.575874805E0,-6.005685806E0
4.900336070E-1,-7.035197735E0,-5.719743252E0,-6.281458378E0
4.925588150E-1,-6.898507595E0,-5.916254044E0,-6.451348782E0
4.950840240E-1,-6.725925446E0,-6.163013935E0,-6.681358814E0
4.976092320E-1,-6.412166595E0,-6.452844620E0,-6.753143787E0
5.001344400E-1,-6.117550373E0,-6.759424686E0,-6.803392887E0
5.026596490E-1,-5.822933674E0,-7.073183537E0,-6.769893646E0
5.051848570E-1,-5.494818211E0,-7.353443146E0,-6.671787739E0
5.077100650E-1,-5.245665550E0,-7.588238716E0,-6.559325218E0
5.102352740E-1,-5.008476734E0,-7.760521889E0,-6.350850582E0
5.127604820E-1,-4.742574692E0,-7.858926773E0,-6.147161484E0
5.152856900E-1,-4.491028786E0,-8.004889488E0,-5.886044502E0
5.178108990E-1,-4.263411522E0,-8.108079910E0,-5.608178139E0
5.203361070E-1,-4.031008720E0,-8.172685623E0,-5.335097313E0
5.228613150E-1,-3.793820381E0,-8.194221497E0,-5.121836662E0
5.253865240E-1,-3.578466177E0,-8.249256134E0,-4.882255554E0
5.279117320E-1,-3.372384310E0,-8.256434441E0,-4.686044216E0
5.304369400E-1,-3.175873756E0,-8.234899521E0,-4.530211449E0
5.329621490E-1,-3.008077145E0,-8.146365166E0,-4.376771927E0
5.354873050E-1,-2.816651344E0,-8.110472679E0,-4.266701698E0
5.380125130E-1,-2.656033039E0,-8.016853333E0,-4.173381805E0
5.405377740E-1,-2.600998163E0,-7.882854939E0,-4.175774574E0
5.430629300E-1,-2.569891453E0,-7.676773071E0,-4.122833252E0
5.455881900E-1,-2.550748825E0,-7.480262756E0,-4.182952881E0
5.481133470E-1,-2.615355253E0,-7.221538544E0,-4.226023674E0
5.506385550E-1,-2.639283419E0,-7.006184578E0,-4.230809689E0
5.531638150E-1,-2.696711063E0,-6.730710983E0,-4.235595226E0
5.556889720E-1,-2.807080030E0,-6.500700951E0,-4.254737854E0
5.582141800E-1,-2.866900682E0,-6.285048008E0,-4.264308929E0
5.607393880E-1,-2.974577665E0,-6.004788399E0,-4.276273251E0
5.632645970E-1,-3.046661377E0,-5.801099300E0,-4.254737854E0
5.657898050E-1,-3.116053343E0,-5.633601665E0,-4.216452599E0
5.683150130E-1,-3.245265722E0,-5.403591633E0,-4.214059830E0
5.708402220E-1,-3.367598772E0,-5.192724228E0,-4.159024715E0
5.733654300E-1,-3.432204962E0,-5.003392220E0,-4.122833252E0
5.758906380E-1,-3.468097210E0,-4.857429981E0,-4.082155228E0
5.784158470E-1,-3.561716557E0,-4.689633369E0,-4.012763500E0
5.809410550E-1,-3.585644722E0,-4.584349155E0,-3.993621111E0
5.834662630E-1,-3.583251953E0,-4.433301926E0,-4.003192425E0
5.859914720E-1,-3.611965895E0,-4.304089546E0,-3.986442566E0
5.885166800E-1,-3.583251953E0,-4.184149265E0,-3.964907169E0
5.910418880E-1,-3.583251953E0,-4.033401489E0,-3.912265062E0
5.935670970E-1,-3.564109325E0,-3.913461447E0,-3.900300980E0
5.960923050E-1,-3.542274714E0,-3.784249067E0,-3.844966888E0
5.986175130E-1,-3.470490217E0,-3.685844183E0,-3.837788343E0
6.011427220E-1,-3.432204962E0,-3.597309828E0,-3.749253988E0
6.036679300E-1,-3.360420227E0,-3.489632607E0,-3.689433336E0
6.061931380E-1,-3.281457186E0,-3.458226919E0,-3.627219915E0
6.087183470E-1,-3.228515863E0,-3.388834953E0,-3.564707518E0
6.112830340E-1,-3.159124136E0,-3.329014540E0,-3.514458179E0
6.137687630E-1,-3.118446112E0,-3.297907829E0,-3.461816072E0
6.162939720E-1,-3.053839922E0,-3.240479946E0,-3.464209080E0
6.188191800E-1,-2.998505831E0,-3.247658491E0,-3.480958700E0
6.213443880E-1,-3.022733212E0,-3.235694408E0,-3.490530014E0
6.238695970E-1,-3.041875839E0,-3.173182011E0,-3.547957659E0
6.263948050E-1,-2.972184896E0,-3.170789003E0,-3.615255833E0
6.289200130E-1,-2.945863724E0,-3.254837036E0,-3.679862022E0
6.314452220E-1,-2.909971476E0,-3.240479946E0,-3.701397419E0
6.339704300E-1,-2.857329369E0,-3.262015581E0,-3.761218071E0
6.364956380E-1,-2.799901485E0,-3.317050457E0,-3.847359657E0
6.390603260E-1,-2.727817774E0,-3.398406267E0,-3.907479286E0
6.415460550E-1,-2.557927370E0,-3.441477060E0,-3.921836376E0
6.440712630E-1,-2.454736948E0,-3.506382465E0,-3.969692707E0
6.465964720E-1,-2.361416817E0,-3.563810110E0,-3.967299938E0
6.491216280E-1,-2.251347065E0,-3.623630762E0,-3.948157310E0
6.516470440E-1,-2.145763636E0,-3.738486290E0,-4.005585194E0
6.541725130E-1,-2.016551256E0,-3.853640795E0,-4.010370731E0
6.566979300E-1,-1.858325839E0,-3.973282099E0,-4.022335052E0
6.592233470E-1,-1.741077542E0,-4.059722900E0,-4.055834293E0
6.617488150E-1,-1.601994753E0,-4.222434521E0,-4.012763500E0
6.642742320E-1,-1.484746456E0,-4.335196495E0,-3.950550079E0
6.667996490E-1,-1.333699465E0,-4.481158733E0,-3.945764542E0
6.693251170E-1,-1.178166032E0,-4.672883511E0,-3.902693748E0
6.718505340E-1,-1.096511006E0,-4.819144726E0,-3.866502285E0
6.743759510E-1,-9.601200819E-1,-4.929214478E0,-3.818645954E0
6.769014190E-1,-8.210372925E-1,-5.113760948E0,-3.766003847E0
6.794241280E-1,-6.822535396E-1,-5.271687508E0,-3.694219112E0
6.819495440E-1,-5.766702294E-1,-5.441876888E0,-3.634398460E0
6.844750130E-1,-4.187439680E-1,-5.585446358E0,-3.516851187E0
6.870004300E-1,-3.251247704E-1,-5.731707573E0,-3.433102369E0
6.895258470E-1,-2.246262282E-1,-5.909075737E0,-3.387638569E0
6.920513150E-1,-1.169492081E-1,-6.047859192E0,-3.298804998E0
6.945767320E-1,-3.050848842E-2,-6.148357868E0,-3.313162088E0
6.971021490E-1,7.956135273E-2,-6.328118801E0,-3.262912750E0
6.996276170E-1,1.872383654E-1,-6.481558323E0,-3.294019461E0
7.021530340E-1,2.976073027E-1,-6.558128834E0,-3.286840916E0
7.046784510E-1,4.316053987E-1,-6.672984123E0,-3.298804998E0
7.072039190E-1,5.635097623E-1,-6.824030876E0,-3.279662609E0
7.097661070E-1,6.903293133E-1,-6.931707859E0,-3.274876833E0
7.122915240E-1,8.054839373E-1,-6.999006271E0,-3.308376312E0
7.148169400E-1,9.179465771E-1,-7.094718933E0,-3.270091295E0
7.173424090E-1,1.066600680E0,-7.166503906E0,-3.267698526E0
7.198678260E-1,1.152742267E0,-7.204789162E0,-3.322733402E0
7.223932420E-1,1.253240824E0,-7.267301559E0,-3.325126171E0
7.249187110E-1,1.327717423E0,-7.396513939E0,-3.378067255E0
7.274441280E-1,1.389930844E0,-7.487441063E0,-3.368496180E0
7.299695440E-1,1.444965720E0,-7.470691204E0,-3.329911709E0
7.324950130E-1,1.442572951E0,-7.585845947E0,-3.234198809E0
7.350204300E-1,1.454537034E0,-7.664809227E0,-3.171985626E0
7.375458470E-1,1.454537034E0,-7.686344624E0,-3.112164974E0
7.400291280E-1,1.399502158E0,-7.719843864E0,-3.064009428E0
7.425545440E-1,1.334895968E0,-7.681559086E0,-2.951546669E0
7.450800130E-1,1.299003601E0,-7.674380302E0,-2.867797852E0
7.476054300E-1,1.167099237E0,-7.657630444E0,-2.747857809E0
7.501308470E-1,1.016351461E0,-7.676773071E0,-2.592324257E0
7.526563150E-1,8.629116416E-1,-7.643273830E0,-2.520240545E0
7.551817320E-1,7.214360237E-1,-7.612166882E0,-2.469991207E0
7.577071490E-1,5.156532526E-1,-7.526025295E0,-2.398206472E0
7.602326170E-1,3.765704632E-1,-7.398906708E0,-2.369492531E0
7.627580340E-1,1.298106313E-1,-7.336693287E0,-2.350350142E0
7.652834510E-1,-1.097707376E-1,-7.197610378E0,-2.288136721E0
7.678089190E-1,-2.222333997E-1,-7.087540627E0,-2.180160522E0
7.703316280E-1,-3.541377485E-1,-6.965506554E0,-2.082054853E0
7.728570440E-1,-5.383850932E-1,-6.859923363E0,-2.015055656E0
7.753825130E-1,-7.325028181E-1,-6.761817455E0,-1.947757602E0
7.779079300E-1,-8.907282352E-1,-6.687341213E0,-1.940579176E0
7.804333470E-1,-1.106082320E0,-6.617949009E0,-1.923829436E0
7.829588150E-1,-1.245165110E0,-6.543771744E0,-1.978864312E0
7.854842320E-1,-1.302592874E0,-6.491129398E0,-2.024626970E0
7.880096490E-1,-1.386341572E0,-6.433701992E0,-1.844866276E0
7.905351170E-1,-1.503889084E0,-6.332904339E0,-1.555035591E0
7.930605340E-1,-1.645065546E0,-6.289833546E0,-1.262812138E0
7.955859510E-1,-1.817647934E0,-6.227620125E0,-1.178764224E0
7.981114190E-1,-1.968694806E0,-6.263512135E0,-1.164407372E0
8.006341280E-1,-2.114656925E0,-6.342475414E0,-1.222134113E0
8.031595440E-1,-2.280060768E0,-6.426523209E0,-1.301097274E0
8.056850130E-1,-2.394916296E0,-6.538986206E0,-1.413560033E0
8.082104300E-1,-2.461915493E0,-6.653841496E0,-1.571785331E0
8.107358470E-1,-2.483749866E0,-6.809674263E0,-1.662712693E0
8.132613150E-1,-2.440380096E0,-6.982256413E0,-1.777867198E0
8.157867320E-1,-2.337488651E0,-7.161718369E0,-1.952543259E0
8.183121490E-1,-2.157727718E0,-7.343871593E0,-2.127518415E0
8.208376170E-1,-2.011765718E0,-7.557132244E0,-2.314457655E0
8.233630340E-1,-1.829612017E0,-7.784749508E0,-2.501097918E0
8.258884510E-1,-1.674078584E0,-7.968996525E0,-2.726322412E0
8.284139190E-1,-1.575673699E0,-8.172685623E0,-2.886940479E0
8.309366280E-1,-1.496710539E0,-8.338089943E0,-3.121736288E0
8.334620440E-1,-1.383948803E0,-8.553443909E0,-3.313162088E0
8.359875130E-1,-1.360020518E0,-8.737990379E0,-3.507279873E0
8.385129300E-1,-1.444068432E0,-8.831310272E0,-3.706183195E0
8.410383470E-1,-1.546959877E0,-8.898608208E0,-3.811467409E0
8.435638150E-1,-1.674078584E0,-8.977571487E0,-3.960121393E0
8.460892320E-1,-1.832004786E0,-9.001500130E0,-4.067798615E0
8.486146490E-1,-2.042872429E0,-9.015856743E0,-4.218845367E0
8.511401170E-1,-2.210669041E0,-9.025427818E0,-4.261916161E0
8.536655340E-1,-2.421237469E0,-8.960822105E0,-4.333701134E0
8.561909510E-1,-2.759223700E0,-8.934500694E0,-4.456034184E0
8.587164190E-1,-2.993720293E0,-8.944071770E0,-4.465605259E0
8.612786070E-1,-3.216551781E0,-8.860322952E0,-4.456034184E0
8.638040240E-1,-3.552145243E0,-8.766703606E0,-4.408177376E0
8.663294400E-1,-3.865904093E0,-8.711668968E0,-4.333701134E0
8.688549090E-1,-4.078865528E0,-8.625527382E0,-4.233202457E0
8.713803260E-1,-4.371387959E0,-8.572885513E0,-4.101297855E0
8.739057420E-1,-4.627718925E0,-8.486444473E0,-3.936193228E0
