"Time (s)","Magnetic field x (µT)","Magnetic field y (µT)","Magnetic field z (µT)"
1.419728870E-1,-4.526199722E1,-4.348080063E1,-4.942219925E1
1.519728870E-1,-4.539619827E1,-4.346859741E1,-4.914159775E1
1.619728870E-1,-4.561579895E1,-4.352959824E1,-4.923920059E1
1.719728870E-1,-4.568899918E1,-4.348080063E1,-4.903179932E1
1.819728870E-1,-4.579879761E1,-4.355400085E1,-4.894639969E1
1.919728870E-1,-4.589640045E1,-4.361499786E1,-4.895859909E1
2.019728870E-1,-4.604280090E1,-4.366379929E1,-4.898299789E1
2.119728870E-1,-4.612820053E1,-4.368819809E1,-4.901959991E1
2.219728870E-1,-4.631119919E1,-4.372480011E1,-4.905619812E1
2.319728870E-1,-4.648199844E1,-4.377359772E1,-4.920259857E1
2.419728870E-1,-4.670159912E1,-4.381019974E1,-4.916600037E1
2.519728870E-1,-4.699440002E1,-4.383459854E1,-4.932460022E1
2.619728870E-1,-4.722620010E1,-4.376139832E1,-4.945879745E1
2.719728870E-1,-4.750679779E1,-4.371260071E1,-4.939780045E1
2.819728870E-1,-4.772639847E1,-4.362719727E1,-4.930019760E1
2.919728870E-1,-4.804359818E1,-4.359059906E1,-4.917819977E1
3.019728870E-1,-4.832419968E1,-4.357839966E1,-4.904399872E1
3.119728870E-1,-4.861700058E1,-4.352959824E1,-4.877560043E1
3.219728870E-1,-4.889759827E1,-4.346859741E1,-4.861700058E1
3.319728870E-1,-4.909280014E1,-4.343199921E1,-4.837299728E1
3.419728870E-1,-4.939780045E1,-4.343199921E1,-4.808020020E1
3.519728870E-1,-4.966619873E1,-4.339540100E1,-4.790940094E1
3.619728870E-1,-4.994680023E1,-4.343199921E1,-4.777519989E1
3.719728870E-1,-5.032500076E1,-4.343199921E1,-4.742139816E1
3.819728870E-1,-5.081299973E1,-4.346859741E1,-4.695779800E1
3.919728870E-1,-5.133760071E1,-4.357839966E1,-4.646979904E1
4.019728870E-1,-5.187439728E1,-4.366379929E1,-4.584759903E1
4.119728870E-1,-5.243560028E1,-4.384679794E1,-4.518880081E1
4.219728870E-1,-5.306999969E1,-4.412739944E1,-4.421279907E1
4.319728870E-1,-5.380199814E1,-4.440800095E1,-4.309040070E1
4.419728870E-1,-5.449739838E1,-4.470079803E1,-4.174839783E1
4.519728870E-1,-5.515620041E1,-4.503020096E1,-4.057719803E1
4.619728870E-1,-5.575399780E1,-4.535960007E1,-3.929619980E1
4.719728870E-1,-5.626639938E1,-4.575000000E1,-3.800299835E1
4.819728870E-1,-5.672999954E1,-4.611599731E1,-3.668539810E1
4.919728870E-1,-5.734000015E1,-4.639659882E1,-3.535559845E1
5.019728870E-1,-5.774259949E1,-4.661619949E1,-3.418439865E1
5.119728870E-1,-5.810860062E1,-4.686019897E1,-3.319619751E1
5.219728870E-1,-5.851119995E1,-4.703099823E1,-3.230559921E1
5.319728870E-1,-5.887719727E1,-4.721400070E1,-3.128079987E1
5.419728870E-1,-5.918219757E1,-4.733599854E1,-3.054879951E1
5.519728870E-1,-5.949939728E1,-4.740919876E1,-2.997539902E1
5.619728870E-1,-5.973119736E1,-4.759219742E1,-2.946299934E1
5.719728870E-1,-5.980439758E1,-4.778739929E1,-2.908479881E1
5.819728870E-1,-5.991419983E1,-4.799480057E1,-2.884079933E1
5.919728870E-1,-5.986539841E1,-4.821439743E1,-2.868219948E1
6.019728870E-1,-5.975559998E1,-4.853160095E1,-2.864559937E1
6.119728870E-1,-5.960919952E1,-4.887319946E1,-2.865779877E1
6.219728870E-1,-5.957259750E1,-4.926359940E1,-2.849919891E1
6.319728870E-1,-5.951160049E1,-4.970280075E1,-2.805999947E1
6.419728870E-1,-5.943840027E1,-5.010540009E1,-2.764519882E1
6.519728870E-1,-5.943840027E1,-5.053239822E1,-2.709619904E1
6.619728870E-1,-5.942619705E1,-5.095940018E1,-2.651059914E1
6.719728870E-1,-5.958480072E1,-5.136199951E1,-2.566880035E1
6.819728870E-1,-5.974340057E1,-5.176459885E1,-2.447319984E1
6.919728870E-1,-5.991419983E1,-5.211840057E1,-2.328979874E1
7.019728870E-1,-5.998740005E1,-5.247219849E1,-2.208199883E1
7.119728870E-1,-6.012159729E1,-5.278939819E1,-2.097179985E1
7.219728870E-1,-6.030459976E1,-5.302119827E1,-1.987380028E1
7.319728870E-1,-6.054859924E1,-5.326519775E1,-1.880019951E1
7.419728870E-1,-6.080479813E1,-5.358239746E1,-1.792179871E1
7.519728870E-1,-6.098780060E1,-5.377759933E1,-1.711660004E1
7.619728870E-1,-6.113419724E1,-5.394839859E1,-1.650659943E1
7.719728870E-1,-6.131719971E1,-5.399720001E1,-1.584779930E1
7.819728870E-1,-5.879179764E1,-5.341159821E1,-1.562819958E1
7.919728870E-1,-5.904800034E1,-5.337500000E1,-1.496939945E1
8.019728870E-1,-5.930419922E1,-5.330179977E1,-1.422519970E1
8.119728870E-1,-5.945059967E1,-5.324079895E1,-1.362739944E1
8.219728870E-1,-5.962139893E1,-5.309439850E1,-1.290759945E1
8.319728870E-1,-5.970679855E1,-5.302119827E1,-1.237080002E1
8.419728870E-1,-5.984099960E1,-5.302119827E1,-1.195599937E1
8.519728870E-1,-5.987759781E1,-5.309439850E1,-1.133379936E1
8.619728870E-1,-5.995079803E1,-5.319199753E1,-1.052859974E1
8.719728870E-1,-5.995079803E1,-5.330179977E1,-9.674599648E0
8.819728870E-1,-5.996299744E1,-5.349699783E1,-8.674200058E0
8.919728870E-1,-5.991419983E1,-5.368000031E1,-7.088200092E0
9.019728870E-1,-5.982880020E1,-5.376539993E1,-5.209399700E0
9.119728870E-1,-5.971899796E1,-5.383860016E1,-3.049999952E0
9.219728870E-1,-5.963359833E1,-5.387519836E1,-9.027999640E-1
9.319728870E-1,-5.954819870E1,-5.387519836E1,1.463999987E0
9.419728870E-1,-5.935300064E1,-5.377759933E1,3.879599810E0
9.519728870E-1,-5.914559937E1,-5.357019806E1,6.661200047E0
9.619728870E-1,-5.885279846E1,-5.326519775E1,9.772199631E0
9.719728870E-1,-5.843799973E1,-5.277719879E1,1.315159988E1
9.819728870E-1,-5.751079941E1,-5.177679825E1,1.760459900E1
9.919728870E-1,-5.820619965E1,-5.253319931E1,2.425359917E1
1.001972887E0,-5.688859940E1,-5.086179733E1,2.960939980E1
1.011972887E0,-5.536359787E1,-4.884880066E1,3.491640091E1
1.021972887E0,-5.337500000E1,-4.612820053E1,4.071139908E1
1.031972887E0,-5.122779846E1,-4.309040070E1,4.626239777E1
1.041972887E0,-4.884880066E1,-3.980859756E1,5.159379959E1
1.051972887E0,-4.645759964E1,-3.639260101E1,5.629079819E1
1.061972887E0,-4.451779938E1,-3.307419968E1,5.985319901E1
1.071972887E0,-4.280979919E1,-2.974359894E1,6.285440063E1
1.081972887E0,-4.150439835E1,-2.662039948E1,6.525779724E1
1.091972887E0,-4.054059982E1,-2.364360046E1,6.716099548E1
1.101972887E0,-4.025999832E1,-2.100839996E1,6.814920044E1
1.111972887E0,-4.010139847E1,-1.853179932E1,6.891780090E1
1.121972887E0,-4.000379944E1,-1.610400009E1,6.949119568E1
1.131972887E0,-3.977199936E1,-1.357859993E1,7.007679749E1
1.141972887E0,-3.919860077E1,-1.126060009E1,7.068679810E1
1.151972887E0,-3.758819962E1,-8.479000092E0,7.180919647E1
1.161972887E0,-3.511159897E1,-5.477799892E0,7.315119934E1
1.171972887E0,-3.185419846E1,-2.647399902E0,7.468840027E1
1.181972887E0,-2.829179955E1,-3.416000009E-1,7.643299866E1
1.191972887E0,-2.479039955E1,1.342000008E0,7.803119659E1
1.201972887E0,-2.142319870E1,2.622999907E0,7.940979767E1
1.211972887E0,-1.831220055E1,3.550199986E0,8.065419769E1
1.221972887E0,-1.567700005E1,4.172399998E0,8.158139801E1
1.231972887E0,-1.410319996E1,4.233399868E0,8.213040161E1
1.241972887E0,-1.328579998E1,3.903999805E0,8.233779907E1
1.251972887E0,-1.307839966E1,3.513599873E0,8.238659668E1
1.261972887E0,-1.299300003E1,3.233000040E0,8.241099548E1
1.271972887E0,-1.298079967E1,3.379400015E0,8.239879608E1
1.281972887E0,-1.313939953E1,3.598999977E0,8.248419952E1
1.291972887E0,-1.343219948E1,3.733199835E0,8.255739594E1
1.301972887E0,-1.365180016E1,3.891799927E0,8.265499878E1
1.311972887E0,-1.385919952E1,3.916199923E0,8.265499878E1
1.321972887E0,-1.402999973E1,3.928400040E0,8.283799744E1
1.331972887E0,-1.422519970E1,3.903999805E0,8.308200073E1
1.341972887E0,-1.449359989E1,3.879599810E0,8.324060059E1
1.351972887E0,-1.483519936E1,3.769799948E0,8.327719879E1
1.361972887E0,-1.509140015E1,3.708799839E0,8.344799805E1
1.371972887E0,-1.534759998E1,3.708799839E0,8.346019745E1
1.381972887E0,-1.555499935E1,3.720999956E0,8.359439850E1
1.391972887E0,-1.582339954E1,3.611199856E0,8.364319611E1
1.401972887E0,-1.617720032E1,3.537999868E0,8.376519775E1
1.411972887E0,-1.657979965E1,3.464799881E0,8.364319611E1
1.421972887E0,-1.704339981E1,3.293999910E0,8.366759491E1
1.431972887E0,-1.742160034E1,3.208600044E0,8.382619476E1
1.441972887E0,-1.772659874E1,3.123199940E0,8.382619476E1
1.451972887E0,-1.803159904E1,2.940199852E0,8.381399536E1
1.461972887E0,-1.840979958E1,2.805999994E0,8.381399536E1
1.471972887E0,-1.869039917E1,2.708400011E0,8.387500000E1
1.481972887E0,-1.899539948E1,2.622999907E0,8.385060120E1
1.491972887E0,-1.916619873E1,2.610800028E0,8.386280060E1
1.501972887E0,-1.920279884E1,2.696199894E0,8.380179596E1
1.511972887E0,-1.923939896E1,2.671799898E0,8.375299835E1
1.521972887E0,-1.943459892E1,2.610800028E0,8.370420074E1
1.531972887E0,-1.969079971E1,2.720599890E0,8.380179596E1
1.541972887E0,-1.981279945E1,2.622999907E0,8.382619476E1
1.551972887E0,-1.997139931E1,2.622999907E0,8.376519775E1
1.561972887E0,-2.011779976E1,2.610800028E0,8.381399536E1
1.571972887E0,-2.034959984E1,2.537600040E0,8.391159821E1
1.581972887E0,-2.050819969E1,2.452199936E0,8.397259521E1
1.591972887E0,-2.077659988E1,2.366800070E0,8.403359985E1
1.601972887E0,-2.083759880E1,2.342400074E0,8.418000031E1
1.611972887E0,-2.099619865E1,2.232599974E0,8.437519836E1
1.621972887E0,-2.124020004E1,2.147199869E0,8.435079956E1
1.631972887E0,-2.141099930E1,2.122799873E0,8.461920166E1
1.641972887E0,-2.148419952E1,2.049599886E0,8.474119568E1
1.651972887E0,-2.150860023E1,1.988600016E0,8.482659912E1
1.661972887E0,-2.160619926E1,1.915399909E0,8.500959778E1
1.671972887E0,-2.158180046E1,1.939799905E0,8.515599823E1
1.681972887E0,-2.152079964E1,1.964200020E0,8.527799988E1
1.691972887E0,-2.126459885E1,2.013000011E0,8.532679749E1
1.701972887E0,-2.078879929E1,2.232599974E0,8.547319794E1
1.711972887E0,-2.031299973E1,2.378999949E0,8.544879913E1
1.721972887E0,-1.977619934E1,2.622999907E0,8.554640198E1
1.731972887E0,-1.920279884E1,2.952399969E0,8.569279480E1
1.741972887E0,-1.850740051E1,3.342799902E0,8.572940063E1
1.751972887E0,-1.782419968E1,3.684399843E0,8.569279480E1
1.761972887E0,-1.723859978E1,4.013800144E0,8.572940063E1
1.771972887E0,-1.657979965E1,4.404200077E0,8.583919525E1
1.781972887E0,-1.607959938E1,4.745800018E0,8.576599884E1
1.791972887E0,-1.549399948E1,5.075200081E0,8.580259705E1
1.801972887E0,-1.498159981E1,5.380199909E0,8.570500183E1
1.811972887E0,-1.449359989E1,5.672999859E0,8.544879913E1
1.821972887E0,-1.415199947E1,5.941400051E0,8.537559509E1
1.831972887E0,-1.374940014E1,6.221999645E0,8.544879913E1
1.841972887E0,-1.343219948E1,6.441599846E0,8.548539734E1
1.851972887E0,-1.310279942E1,6.612400055E0,8.543659973E1
1.861972887E0,-1.289540005E1,6.770999908E0,8.565619659E1
1.871972887E0,-1.283440018E1,6.953999996E0,8.581479645E1
1.881972887E0,-1.271239948E1,7.075999737E0,8.601000214E1
1.891972887E0,-1.263920021E1,7.137000084E0,8.636380005E1
1.901972887E0,-1.254160023E1,7.161399841E0,8.657119751E1
1.911972887E0,-1.252939987E1,7.124799728E0,8.679080200E1
1.921972887E0,-1.239519978E1,7.137000084E0,8.698600006E1
1.931972887E0,-1.241959953E1,7.124799728E0,8.716899872E1
1.941972887E0,-1.230980015E1,7.075999737E0,8.730319977E1
1.951972887E0,-1.213899994E1,6.941799641E0,8.742520142E1
1.961972887E0,-1.221220016E1,6.856400013E0,8.754719543E1
1.971972887E0,-1.218779945E1,6.783199787E0,8.780339813E1
1.981972887E0,-1.212679958E1,6.661200047E0,8.802299500E1
1.991972887E0,-1.204139996E1,6.612400055E0,8.813279724E1
2.001972887E0,-1.206579971E1,6.490399837E0,8.825479889E1
2.011972887E0,-1.201700020E1,6.380599976E0,8.843779755E1
2.021972887E0,-1.215119934E1,6.295199871E0,8.858419800E1
2.031972887E0,-1.234639931E1,6.185400009E0,8.877939606E1
2.041972887E0,-1.222439957E1,6.063399792E0,8.882820129E1
2.051972887E0,-1.230980015E1,5.977999687E0,8.886479950E1
2.061972887E0,-1.244399929E1,5.892600060E0,8.887699890E1
2.071972887E0,-1.256599998E1,5.807199955E0,8.907219696E1
2.081972887E0,-1.261479950E1,5.770599842E0,8.920639801E1
2.091972887E0,-1.271239948E1,5.733999729E0,8.934059906E1
2.101972887E0,-1.267579937E1,5.685199738E0,8.945040131E1
2.111972887E0,-1.265139961E1,5.697400093E0,8.960900116E1
2.121972887E0,-1.276119995E1,5.697400093E0,8.988959503E1
2.131972887E0,-1.277339935E1,5.746200085E0,8.995059967E1
2.141972887E0,-1.282219982E1,5.758399963E0,9.020679474E1
2.151972887E0,-1.287099934E1,5.807199955E0,9.024340057E1
2.161972887E0,-1.298079967E1,5.868199825E0,9.030439758E1
2.171972887E0,-1.313939953E1,5.953599930E0,9.021900177E1
2.181972887E0,-1.332240009E1,6.087800026E0,9.024340057E1
2.191972887E0,-1.349319935E1,6.234200001E0,9.030439758E1
2.201972887E0,-1.373719978E1,6.404999733E0,9.023120117E1
2.211972887E0,-1.385919952E1,6.526999950E0,9.027999878E1
2.221972887E0,-1.399339962E1,6.722199917E0,9.032879639E1
2.231972887E0,-1.416419983E1,6.892999649E0,9.034099579E1
2.241972887E0,-1.429839993E1,7.027199745E0,9.038980103E1
2.251972887E0,-1.440819931E1,7.185800076E0,9.059719849E1
2.261972887E0,-1.457899952E1,7.283400059E0,9.069480133E1
2.271972887E0,-1.470099926E1,7.307799816E0,9.075579834E1
2.281972887E0,-1.482299995E1,7.332200050E0,9.082899475E1
2.291972887E0,-1.505480003E1,7.332200050E0,9.095099640E1
2.301972887E0,-1.525000000E1,7.307799816E0,9.090219879E1
2.311972887E0,-1.546959972E1,7.271199703E0,9.093879700E1
2.321972887E0,-1.572579956E1,7.258999825E0,9.098759460E1
2.331972887E0,-1.590880013E1,7.246799946E0,9.092659760E1
2.341972887E0,-1.607959938E1,7.185800076E0,9.093879700E1
2.351972887E0,-1.634799957E1,7.137000084E0,9.078019714E1
2.361972887E0,-1.651879883E1,7.051599979E0,9.079239655E1
2.371972887E0,-1.664080048E1,6.978399754E0,9.074359894E1
2.381972887E0,-1.682379913E1,6.880799770E0,9.078019714E1
2.391972887E0,-1.699460030E1,6.844199657E0,9.079239655E1
2.401972887E0,-1.711660004E1,6.722199917E0,9.073139954E1
2.411972887E0,-1.723859978E1,6.624599934E0,9.071920013E1
2.421972887E0,-1.750699997E1,6.526999950E0,9.067039490E1
2.431972887E0,-1.770219994E1,6.526999950E0,9.065819550E1
2.441972887E0,-1.789739990E1,6.453799725E0,9.058499908E1
2.451972887E0,-1.819019890E1,6.392799854E0,9.056060028E1
2.461972887E0,-1.845859909E1,6.343999863E0,9.045079803E1
2.471972887E0,-1.866600037E1,6.234200001E0,9.026779938E1
2.481972887E0,-1.893440056E1,6.148799896E0,9.012139893E1
2.491972887E0,-1.927599907E1,5.977999687E0,9.006040192E1
2.501972887E0,-1.948340034E1,5.831599712E0,8.993840027E1
2.511972887E0,-1.964200020E1,5.587599754E0,8.980419922E1
2.521972887E0,-1.987380028E1,5.416800022E0,8.979199982E1
2.531972887E0,-2.010560036E1,5.184999943E0,8.968219757E1
2.541972887E0,-2.027639961E1,5.026400089E0,8.969439697E1
2.551972887E0,-2.045940018E1,4.855599880E0,8.964559937E1
2.561972887E0,-2.060579872E1,4.660399914E0,8.966999817E1
2.571972887E0,-2.070339966E1,4.477399826E0,8.969439697E1
2.581972887E0,-2.077659988E1,4.416399956E0,8.976760101E1
2.591972887E0,-2.087419891E1,4.379799843E0,8.984079742E1
2.601972887E0,-2.092300034E1,4.245599747E0,8.975540161E1
2.611972887E0,-2.099619865E1,4.184599876E0,8.976760101E1
2.621972887E0,-2.110599899E1,4.038199902E0,8.981639862E1
2.631972887E0,-2.113039970E1,3.916199923E0,8.996279907E1
2.641972887E0,-2.131340027E1,3.867399931E0,9.018239594E1
2.651972887E0,-2.139879990E1,3.781999826E0,9.017019653E1
2.661972887E0,-2.145979881E1,3.684399843E0,9.021900177E1
2.671972887E0,-2.158180046E1,3.598999977E0,9.041419983E1
2.681972887E0,-2.169159889E1,3.550199986E0,9.067039490E1
2.691972887E0,-2.167939949E1,3.428200006E0,9.084120178E1
2.701972887E0,-2.172819901E1,3.464799881E0,9.099980164E1
2.711972887E0,-2.182579994E1,3.452600002E0,9.108519745E1
2.721972887E0,-2.177700043E1,3.440399885E0,9.113399506E1
2.731972887E0,-2.182579994E1,3.428200006E0,9.139019775E1
2.741972887E0,-2.185019875E1,3.403800011E0,9.156099701E1
2.751972887E0,-2.193560028E1,3.391599894E0,9.167079926E1
2.761972887E0,-2.193560028E1,3.452600002E0,9.185379791E1
2.771972887E0,-2.206979942E1,3.537999868E0,9.203679657E1
2.781972887E0,-2.209420013E1,3.513599873E0,9.217099762E1
2.791972887E0,-2.215519905E1,3.537999868E0,9.241500092E1
2.801972887E0,-2.228940010E1,3.537999868E0,9.261019897E1
2.811972887E0,-2.236260033E1,3.562399864E0,9.269559479E1
2.821972887E0,-2.246019936E1,3.550199986E0,9.293959808E1
2.831972887E0,-2.242359924E1,3.537999868E0,9.314699554E1
2.841972887E0,-2.246019936E1,3.513599873E0,9.318360138E1
2.851972887E0,-2.244799995E1,3.464799881E0,9.335440063E1
2.861972887E0,-2.247239876E1,3.428200006E0,9.353739929E1
2.871972887E0,-2.249679947E1,3.428200006E0,9.368379974E1
2.881972887E0,-2.244799995E1,3.452600002E0,9.375699615E1
2.891972887E0,-2.233819962E1,3.513599873E0,9.389119720E1
2.901972887E0,-2.236260033E1,3.562399864E0,9.400099945E1
2.911972887E0,-2.233819962E1,3.696599960E0,9.404979706E1
2.921972887E0,-2.238699913E1,3.720999956E0,9.419619751E1
2.931972887E0,-2.237479973E1,3.842999935E0,9.428160095E1
2.941972887E0,-2.231379890E1,3.977200031E0,9.431819916E1
2.951972887E0,-2.226499939E1,4.074800014E0,9.436699677E1
2.961972887E0,-2.221619987E1,4.160200119E0,9.454999542E1
2.971972887E0,-2.224059868E1,4.233399868E0,9.462319946E1
2.981972887E0,-2.220400047E1,4.355400085E0,9.463539886E1
2.991972887E0,-2.220400047E1,4.440799713E0,9.473300171E1
3.001972887E0,-2.210639954E1,4.648200035E0,9.481839752E1
3.011972887E0,-2.203319931E1,4.770199776E0,9.487939453E1
3.021972887E0,-2.200880051E1,4.880000114E0,9.491600037E1
3.031972887E0,-2.191119957E1,5.026400089E0,9.486719513E1
3.041972887E0,-2.192339897E1,5.160599709E0,9.478179932E1
3.051972887E0,-2.188679886E1,5.319200039E0,9.475740051E1
3.061972887E0,-2.186240005E1,5.477799892E0,9.478179932E1
3.071972887E0,-2.182579994E1,5.624199867E0,9.476959991E1
3.081972887E0,-2.177700043E1,5.746200085E0,9.476959991E1
3.091972887E0,-2.175259972E1,5.929199696E0,9.476959991E1
3.101972887E0,-2.175259972E1,6.099999905E0,9.475740051E1
3.111972887E0,-2.183799934E1,6.185400009E0,9.480619812E1
3.121972887E0,-2.175259972E1,6.319600105E0,9.486719513E1
3.131972887E0,-2.171599960E1,6.441599846E0,9.498919678E1
3.141972887E0,-2.169159889E1,6.466000080E0,9.498919678E1
3.151972394E0,-2.171599960E1,6.466000080E0,9.492819977E1
3.161972185E0,-2.180139923E1,6.502599716E0,9.483059692E1
3.171972185E0,-2.182579994E1,6.514800072E0,9.475740051E1
3.181972185E0,-2.180139923E1,6.551399708E0,9.467199707E1
3.191972185E0,-2.175259972E1,6.575799942E0,9.452559662E1
3.201972185E0,-2.181359863E1,6.624599934E0,9.436699677E1
3.211972185E0,-2.181359863E1,6.661200047E0,9.411080170E1
3.221972185E0,-2.176479912E1,6.770999908E0,9.406199646E1
3.231972185E0,-2.171599960E1,6.844199657E0,9.391559601E1
3.241972185E0,-2.171599960E1,6.880799770E0,9.376919556E1
3.251972185E0,-2.166720009E1,6.953999996E0,9.363499451E1
3.261972185E0,-2.171599960E1,6.941799641E0,9.358619690E1
3.271972185E0,-2.178919983E1,7.027199745E0,9.359839630E1
3.281972185E0,-2.166720009E1,6.990599632E0,9.353739929E1
3.291972185E0,-2.164279938E1,7.002799988E0,9.348860168E1
3.301972185E0,-2.164279938E1,6.953999996E0,9.336660004E1
3.311972185E0,-2.165499878E1,6.941799641E0,9.341539764E1
3.321972185E0,-2.156959915E1,6.929599762E0,9.340319824E1
3.331972185E0,-2.152079964E1,6.905200005E0,9.330559540E1
3.341972185E0,-2.141099930E1,6.917399883E0,9.335440063E1
3.351972185E0,-2.128899956E1,6.929599762E0,9.340319824E1
3.361972185E0,-2.131340027E1,6.990599632E0,9.337879944E1
3.371972185E0,-2.125239944E1,6.917399883E0,9.340319824E1
3.381972185E0,-2.119140053E1,6.880799770E0,9.341539764E1
3.391972185E0,-2.116699982E1,6.844199657E0,9.341539764E1
3.401972185E0,-2.117919922E1,6.844199657E0,9.356179810E1
3.411972185E0,-2.116699982E1,6.807600021E0,9.369599915E1
3.421972185E0,-2.117919922E1,6.758800030E0,9.369599915E1
3.431972185E0,-2.113039970E1,6.661200047E0,9.367160034E1
3.441972185E0,-2.111820030E1,6.587999821E0,9.378139496E1
3.451972185E0,-2.114259911E1,6.648999691E0,9.393999481E1
3.461972185E0,-2.110599899E1,6.734399796E0,9.407419586E1
3.471972185E0,-2.111820030E1,6.758800030E0,9.420839691E1
3.481972185E0,-2.104500008E1,6.746599674E0,9.430599976E1
3.491972185E0,-2.106939888E1,6.807600021E0,9.448899841E1
3.501972185E0,-2.104500008E1,6.844199657E0,9.468419647E1
3.511972185E0,-2.110599899E1,6.966199875E0,9.490380096E1
3.521972185E0,-2.108160019E1,6.953999996E0,9.517219543E1
3.531972185E0,-2.110599899E1,6.892999649E0,9.531859589E1
3.541972185E0,-2.117919922E1,6.831999779E0,9.542839813E1
3.551972185E0,-2.113039970E1,6.807600021E0,9.561139679E1
3.561972185E0,-2.122799873E1,6.807600021E0,9.580659485E1
3.571972185E0,-2.128899956E1,6.770999908E0,9.594079590E1
