"Time (s)","Acceleration x (m/s^2)","Acceleration y (m/s^2)","Acceleration z (m/s^2)"
3.006344500E-2,2.467897415E0,-1.053230762E1,-2.673680305E0
3.258870500E-2,2.693121910E0,-1.063519955E1,-2.453241348E0
3.515625800E-2,2.858226538E0,-1.075035381E1,-2.206481695E0
3.767875800E-2,2.815155745E0,-1.088674450E1,-2.029412746E0
4.020407000E-2,2.666800737E0,-1.095374393E1,-1.837687731E0
4.272933000E-2,2.388934374E0,-1.099472141E1,-1.665105462E0
4.525464300E-2,2.106282234E0,-1.105932713E1,-1.476072431E0
4.777995500E-2,1.741974831E0,-1.109761238E1,-1.334596872E0
5.030521600E-2,1.423430324E0,-1.105693436E1,-1.222134113E0
5.283047600E-2,1.097707391E0,-1.106650543E1,-1.130907774E0
5.540412200E-2,7.887341380E-1,-1.108086300E1,-1.102193952E0
5.792953900E-2,4.651049078E-1,-1.102104187E1,-1.140479088E0
6.045495500E-2,4.845465720E-2,-1.096092224E1,-1.159621716E0
6.298032000E-2,-3.179463148E-1,-1.086520958E1,-1.231705427E0
6.298037200E-2,-6.272186637E-1,-1.072881889E1,-1.258026481E0
6.798370500E-2,-8.859425783E-1,-1.065673447E1,-1.289133191E0
7.049948700E-2,-1.096511006E0,-1.057777119E1,-1.336989641E0
7.299500800E-2,-1.252343535E0,-1.038365364E1,-1.622034669E0
7.552568500E-2,-1.448854089E0,-1.009860897E1,-2.105983019E0
7.809021600E-2,-1.633101463E0,-9.689137459E0,-2.690429926E0
8.060599700E-2,-1.625923038E0,-9.444769859E0,-3.241377354E0
8.320834100E-2,-1.489532113E0,-9.229117393E0,-3.739682674E0
8.572412200E-2,-1.304985642E0,-8.991928101E0,-4.163810730E0
8.823516400E-2,-1.120439172E0,-8.766703606E0,-4.544568539E0
9.071917400E-2,-8.330013752E-1,-8.584849358E0,-4.889433861E0
9.320266400E-2,-5.814558864E-1,-8.431409836E0,-5.193621635E0
9.586016400E-2,-3.972085714E-1,-8.258827209E0,-5.457130909E0
9.829500800E-2,-2.509472668E-1,-8.088936806E0,-5.591428280E0
1.008203200E-1,-1.408774406E-1,-7.856534004E0,-5.550750256E0
1.033455800E-1,-5.922235921E-2,-7.581060410E0,-5.342275620E0
1.058290700E-1,-5.443671346E-2,-7.291229725E0,-4.983053207E0
1.084024550E-1,-9.780662507E-2,-6.979863644E0,-4.625924587E0
1.109758410E-1,-2.437688112E-1,-6.668198586E0,-4.297808647E0
1.134467260E-1,-4.953143001E-1,-6.359225273E0,-4.065405846E0
1.159302160E-1,-7.348956466E-1,-6.100501537E0,-3.974478483E0
1.185655280E-1,-1.029511929E0,-5.921039581E0,-3.943371773E0
1.210226120E-1,-1.371984720E0,-5.803492069E0,-3.842574120E0
1.235478720E-1,-1.683649778E0,-5.796313763E0,-3.746861219E0
1.260731850E-1,-1.951945066E0,-5.781956673E0,-3.500101328E0
1.285984450E-1,-2.244168520E0,-5.781956673E0,-3.305983543E0
1.311237050E-1,-2.543570518E0,-5.777171135E0,-2.980260611E0
1.336490180E-1,-2.821436882E0,-5.803492069E0,-2.769393206E0
1.361742780E-1,-3.154338360E0,-5.858527184E0,-2.544467688E0
1.386995910E-1,-3.439383507E0,-5.865705490E0,-2.314457655E0
1.412249030E-1,-3.750749588E0,-5.933003902E0,-2.208874464E0
1.438665700E-1,-3.992723703E0,-6.040680885E0,-2.223231316E0
1.463918830E-1,-4.261018753E0,-6.186942101E0,-2.319243431E0
1.489171430E-1,-4.412065983E0,-6.364010811E0,-2.515454769E0
1.514424550E-1,-4.495814800E0,-6.603592396E0,-2.800798893E0
1.539677160E-1,-4.443172455E0,-6.886244297E0,-3.248555899E0
1.564930280E-1,-4.325624943E0,-7.300800800E0,-3.713361740E0
1.590182890E-1,-4.174877167E0,-7.782356739E0,-4.221238136E0
1.615436010E-1,-3.956831455E0,-8.273183823E0,-4.606781960E0
1.640688620E-1,-3.683750391E0,-8.845966339E0,-4.951946259E0
1.665941740E-1,-3.425026417E0,-9.459127426E0,-5.270491123E0
1.691194350E-1,-3.252444267E0,-1.010578728E1,-5.543571949E0
1.716447470E-1,-3.104089260E0,-1.085563850E1,-5.665606022E0
1.741700080E-1,-2.926721096E0,-1.160788155E1,-5.819045544E0
1.766952680E-1,-2.756830692E0,-1.239841080E1,-5.972186089E0
1.792205800E-1,-2.596212626E0,-1.329900932E1,-6.099305153E0
1.817458930E-1,-2.464308262E0,-1.419990730E1,-6.283851147E0
1.842711530E-1,-2.308774710E0,-1.509093380E1,-6.602396011E0
1.867964660E-1,-2.174477577E0,-1.595564079E1,-6.911369324E0
1.893605280E-1,-2.078764677E0,-1.681316757E1,-7.146164894E0
1.918440180E-1,-2.057229280E0,-1.761566162E1,-7.296912670E0
1.944312050E-1,-2.109871387E0,-1.826022720E1,-7.354639530E0
1.969364140E-1,-2.145763636E0,-1.880878258E1,-7.179664135E0
1.995336010E-1,-2.246561289E0,-1.922543335E1,-6.865905285E0
2.020170910E-1,-2.351845503E0,-1.948176384E1,-6.513562202E0
2.045288620E-1,-2.505285263E0,-1.959931183E1,-6.180660725E0
2.070375080E-1,-2.771187782E0,-1.961127472E1,-5.890830040E0
2.095240180E-1,-3.034697294E0,-1.943390656E1,-5.672784328E0
2.120493300E-1,-3.283849955E0,-1.925653839E1,-5.536393166E0
2.145745910E-1,-3.487239838E0,-1.894277954E1,-5.414060116E0
2.170999030E-1,-3.645465374E0,-1.856680870E1,-5.292026520E0
2.196251640E-1,-3.851547241E0,-1.823869324E1,-5.140979290E0
2.221504760E-1,-3.987937927E0,-1.781934929E1,-4.975874901E0
2.246757370E-1,-4.002295017E0,-1.732104492E1,-4.743471622E0
2.272010490E-1,-4.033401489E0,-1.680359650E1,-4.448855400E0
2.297263100E-1,-4.066901207E0,-1.624068642E1,-4.242773533E0
2.322516220E-1,-4.026223183E0,-1.562991714E1,-4.106083870E0
2.347768830E-1,-3.978366852E0,-1.501675701E1,-3.974478483E0
2.373021950E-1,-3.858725548E0,-1.429083443E1,-3.869194269E0
2.398274550E-1,-3.755535126E0,-1.354337597E1,-3.773182154E0
2.423527680E-1,-3.671786308E0,-1.277438259E1,-3.727718592E0
2.448780280E-1,-3.549752474E0,-1.201017475E1,-3.768396616E0
2.474033410E-1,-3.496811152E0,-1.129412270E1,-3.856930971E0
2.499286530E-1,-3.465704441E0,-1.062802124E1,-4.012763500E0
2.524539140E-1,-3.374777317E0,-1.000768185E1,-4.137489319E0
2.549791740E-1,-3.410669565E0,-9.384949684E0,-4.245166302E0
2.575044870E-1,-3.537489176E0,-8.896215439E0,-4.376771927E0
2.600685490E-1,-3.580859184E0,-8.503194809E0,-4.527818680E0
2.625550600E-1,-3.640679598E0,-8.129614830E0,-4.640281200E0
2.650803200E-1,-3.760320902E0,-7.842176914E0,-4.674079895E0
2.676056330E-1,-3.873082638E0,-7.640881062E0,-4.613960266E0
2.701308930E-1,-3.944867134E0,-7.489833832E0,-4.544568539E0
2.726562050E-1,-4.007080555E0,-7.425227642E0,-4.362414837E0
2.751814660E-1,-4.136591911E0,-7.358228683E0,-4.151846409E0
2.777067780E-1,-4.222733974E0,-7.317550659E0,-4.000799656E0
2.802320390E-1,-4.186841488E0,-7.355835915E0,-3.948157310E0
2.827573510E-1,-4.251447678E0,-7.386942387E0,-3.948157310E0
2.852826120E-1,-4.277768612E0,-7.528418064E0,-4.074976921E0
2.878079240E-1,-4.299304008E0,-7.640881062E0,-4.211667061E0
2.903331850E-1,-4.364209175E0,-7.803892136E0,-4.410570145E0
2.928584970E-1,-4.452744007E0,-7.978568077E0,-4.566103935E0
2.953837580E-1,-4.536492825E0,-8.160721779E0,-4.661816597E0
2.979090180E-1,-4.651647091E0,-8.294719696E0,-4.829613209E0
3.004343300E-1,-4.776073933E0,-8.412266731E0,-4.985445976E0
3.029596430E-1,-4.963013172E0,-8.522336960E0,-5.047659397E0
3.054849030E-1,-5.092225552E0,-8.682954788E0,-5.093122959E0
3.080102160E-1,-5.120939732E0,-8.742775917E0,-5.155336380E0
3.105354760E-1,-5.123332500E0,-8.785846710E0,-5.210670471E0
3.130607890E-1,-5.092225552E0,-8.828917503E0,-5.234598637E0
3.155860490E-1,-5.085047245E0,-8.920144081E0,-5.145765305E0
3.181113620E-1,-4.963013172E0,-8.977571487E0,-5.143372059E0
3.206366220E-1,-4.929513931E0,-9.099904060E0,-5.227420330E0
3.231619350E-1,-4.831109047E0,-9.207581520E0,-5.246562958E0
3.256871950E-1,-4.835894585E0,-9.348757744E0,-5.244169712E0
3.282125080E-1,-4.840680122E0,-9.528518677E0,-5.215456009E0
3.307765700E-1,-4.891228676E0,-9.660423279E0,-5.179264545E0
3.332630800E-1,-4.953442097E0,-9.717850685E0,-5.097908497E0
3.357883410E-1,-4.941477776E0,-9.899705887E0,-4.966303349E0
3.383136530E-1,-5.008476734E0,-1.002921677E1,-4.805685043E0
3.408389140E-1,-5.044369221E0,-1.012732315E1,-4.642673969E0
3.433642260E-1,-5.152345181E0,-1.018505001E1,-4.420141697E0
3.458894870E-1,-5.260022163E0,-1.020419216E1,-4.192524433E0
3.484147470E-1,-5.327021599E0,-1.019701385E1,-3.981656790E0
3.509400600E-1,-5.475675583E0,-1.020179939E1,-3.756432533E0
3.534653200E-1,-5.588138103E0,-1.011535835E1,-3.579064369E0
3.560294350E-1,-5.710471153E0,-1.004835987E1,-3.390031576E0
3.585159450E-1,-5.777470112E0,-9.907182693E0,-3.231806040E0
3.610412050E-1,-5.849255085E0,-9.756135941E0,-3.025724173E0
3.635665180E-1,-5.906682491E0,-9.557232857E0,-2.829512835E0
3.660917780E-1,-5.849255085E0,-9.339186668E0,-2.695215702E0
3.686170390E-1,-5.818148136E0,-9.051749229E0,-2.522633314E0
3.711423510E-1,-5.712863922E0,-8.757132530E0,-2.359921217E0
3.736676120E-1,-5.557031631E0,-8.455337524E0,-2.239981174E0
3.761929240E-1,-5.427819252E0,-8.072187424E0,-2.182553291E0
3.787181850E-1,-5.252843857E0,-7.727022648E0,-2.105983019E0
3.812434970E-1,-5.063511848E0,-7.367800236E0,-2.101197481E0
3.837688100E-1,-4.919942379E0,-7.063612461E0,-2.163410664E0
3.862940700E-1,-4.709074974E0,-6.737889290E0,-2.184946060E0
3.888193300E-1,-4.572384834E0,-6.392724991E0,-2.218445778E0
3.913446430E-1,-4.455136776E0,-6.093322754E0,-2.268994093E0
3.938699030E-1,-4.308875561E0,-5.798706532E0,-2.410170555E0
3.963952160E-1,-4.282554150E0,-5.475376606E0,-2.501097918E0
3.989205280E-1,-4.258625984E0,-5.219045162E0,-2.621038198E0
4.014457890E-1,-4.172484398E0,-4.996213913E0,-2.747857809E0
4.039710490E-1,-4.119842529E0,-4.756632328E0,-2.886940479E0
4.064963620E-1,-4.042973042E0,-4.586741924E0,-2.956332445E0
4.090216220E-1,-3.983152390E0,-4.426123619E0,-3.114557743E0
4.115469350E-1,-3.935296059E0,-4.239184380E0,-3.203092098E0
4.140721950E-1,-3.868296862E0,-4.102793694E0,-3.270091295E0
4.165975080E-1,-3.769891977E0,-4.019044876E0,-3.368496180E0
4.191227680E-1,-3.690928936E0,-3.937389612E0,-3.457030535E0
4.216480800E-1,-3.626322746E0,-3.832105398E0,-3.547957659E0
4.241733410E-1,-3.568894863E0,-3.728914976E0,-3.641577005E0
4.266986530E-1,-3.463311672E0,-3.609273911E0,-3.720540047E0
4.292239140E-1,-3.393919706E0,-3.520739317E0,-3.780360699E0
4.317492260E-1,-3.334099293E0,-3.494418383E0,-3.852145433E0
4.342744870E-1,-3.230908871E0,-3.396013498E0,-3.883551121E0
4.367997990E-1,-3.183052301E0,-3.290729284E0,-3.972085476E0
4.393250600E-1,-3.099303484E0,-3.204288721E0,-3.996013880E0
4.418503720E-1,-3.025125980E0,-3.132503986E0,-4.029513359E0
4.443756330E-1,-2.948256493E0,-3.072683334E0,-4.019941807E0
4.469009450E-1,-2.850150824E0,-3.043969393E0,-4.027120590E0
4.494262050E-1,-2.780759096E0,-2.945863724E0,-4.034298897E0
4.519515180E-1,-2.723032236E0,-2.914458036E0,-3.929014683E0
4.544767780E-1,-2.660818815E0,-2.897708178E0,-3.885943890E0
4.570020910E-1,-2.541177750E0,-2.857030153E0,-3.893122435E0
4.595273510E-1,-2.466701031E0,-2.823530674E0,-3.881158352E0
4.620526120E-1,-2.373380899E0,-2.801995277E0,-3.883551121E0
4.645779240E-1,-2.344667196E0,-2.761317253E0,-3.924229145E0
4.671032370E-1,-2.301596165E0,-2.756531715E0,-3.964907169E0
4.696284970E-1,-2.215454578E0,-2.763710260E0,-3.955335855E0
4.721926120E-1,-2.188834429E0,-2.751745939E0,-3.933800459E0
4.746790700E-1,-2.160120726E0,-2.761317253E0,-3.938585997E0
4.772043830E-1,-2.062014818E0,-2.842673302E0,-3.926621914E0
4.797296430E-1,-2.047657967E0,-2.868994236E0,-3.888336897E0
4.822549550E-1,-1.968694806E0,-2.924029350E0,-3.799503326E0
4.847802160E-1,-1.841576099E0,-2.993720293E0,-3.763610840E0
4.873055280E-1,-1.741077542E0,-3.055933714E0,-3.694219112E0
4.898307890E-1,-1.649851203E0,-3.103790045E0,-3.620041609E0
4.923561010E-1,-1.530210137E0,-3.197110176E0,-3.579064369E0
4.948813620E-1,-1.482353687E0,-3.264408350E0,-3.595814228E0
4.974066740E-1,-1.352842093E0,-3.364906788E0,-3.557528973E0
4.999319350E-1,-1.261914849E0,-3.453441381E0,-3.504886866E0
5.024572470E-1,-1.144666553E0,-3.575774431E0,-3.512065411E0
5.049825080E-1,-9.840483069E-1,-3.748356581E0,-3.464209080E0
5.075078200E-1,-8.787640929E-1,-3.903890133E0,-3.411566973E0
5.100330800E-1,-7.995018363E-1,-4.083651066E0,-3.423531055E0
5.125583930E-1,-7.013961077E-1,-4.272684097E0,-3.416352510E0
5.150836530E-1,-5.958128572E-1,-4.464408875E0,-3.375674486E0
5.176089660E-1,-5.312066078E-1,-4.684847832E0,-3.385245800E0
5.201342260E-1,-4.498506486E-1,-4.924428940E0,-3.375674486E0
5.226595390E-1,-3.852444589E-1,-5.173581600E0,-3.344567776E0
5.251848510E-1,-3.493520916E-1,-5.410770416E0,-3.356531858E0
5.277101120E-1,-3.299104273E-1,-5.635994434E0,-3.325126171E0
5.302353720E-1,-3.493520916E-1,-5.815456390E0,-3.298804998E0
5.327606850E-1,-3.565305769E-1,-6.074180126E0,-3.317947626E0
5.352859450E-1,-4.235295951E-1,-6.277869225E0,-3.317947626E0
5.378112580E-1,-4.881358147E-1,-6.486343861E0,-3.248555899E0
5.403365180E-1,-5.575276613E-1,-6.716353893E0,-3.279662609E0
5.428618300E-1,-6.200401783E-1,-6.919744015E0,-3.327518940E0
5.453870910E-1,-7.157530785E-1,-7.058826923E0,-3.322733402E0
5.479124030E-1,-8.210372925E-1,-7.252944469E0,-3.354139090E0
5.504376640E-1,-9.026923180E-1,-7.353443146E0,-3.416352510E0
5.529629240E-1,-9.888339639E-1,-7.482655525E0,-3.425923824E0
5.554882890E-1,-1.039083242E0,-7.616952896E0,-3.454637766E0
5.580135490E-1,-1.163809061E0,-7.738986492E0,-3.512065411E0
5.605388100E-1,-1.237986565E0,-7.832605839E0,-3.507279873E0
5.630641220E-1,-1.288235903E0,-7.892426491E0,-3.516851187E0
5.655893830E-1,-1.364806175E0,-7.940282822E0,-3.586242914E0
5.681146950E-1,-1.386341572E0,-8.024031639E0,-3.634398460E0
5.706399550E-1,-1.451246977E0,-8.062616348E0,-3.658326626E0
5.731234450E-1,-1.527817249E0,-8.115258217E0,-3.677469254E0
5.757682890E-1,-1.568495274E0,-8.165507317E0,-3.737289906E0
5.783018830E-1,-1.554138303E0,-8.203792572E0,-3.761218071E0
5.807799030E-1,-1.601994753E0,-8.256434441E0,-3.768396616E0
5.833051640E-1,-1.587637782E0,-8.287541389E0,-3.730111361E0
5.858738100E-1,-1.594816327E0,-8.270791054E0,-3.756432533E0
5.883169350E-1,-1.594816327E0,-8.289934158E0,-3.833002806E0
5.908422470E-1,-1.568495274E0,-8.277970314E0,-3.828217030E0
5.933675080E-1,-1.575673699E0,-8.220541954E0,-3.811467409E0
5.958928200E-1,-1.566102386E0,-8.148757935E0,-3.739682674E0
5.984180800E-1,-1.537388563E0,-8.062616348E0,-3.696611881E0
6.009433930E-1,-1.527817249E0,-7.971389771E0,-3.720540047E0
6.034686530E-1,-1.544566989E0,-7.813463211E0,-3.660719633E0
6.060327680E-1,-1.594816327E0,-7.688737392E0,-3.473780155E0
6.085192260E-1,-1.496710539E0,-7.561917782E0,-3.224627733E0
6.110445390E-1,-1.420140266E0,-7.403692245E0,-3.064009428E0
6.135697990E-1,-1.369591832E0,-7.272087097E0,-2.965903759E0
6.160951120E-1,-1.381555915E0,-7.156932354E0,-2.953939438E0
6.186203720E-1,-1.314556956E0,-7.030112743E0,-2.874976397E0
6.211456850E-1,-1.204487085E0,-6.914958477E0,-2.731107950E0
6.236709970E-1,-1.132403374E0,-6.778567314E0,-2.474776745E0
6.261962580E-1,-1.108475089E0,-6.584449768E0,-2.122732878E0
6.287215700E-1,-1.048654556E0,-6.469594002E0,-1.885544300E0
6.312468300E-1,-1.086939692E0,-6.380760670E0,-1.770688772E0
6.337720910E-1,-1.173380375E0,-6.323332787E0,-1.758724689E0
6.362974030E-1,-1.199701428E0,-6.299404621E0,-1.749153376E0
6.388227160E-1,-1.300199986E0,-6.292226315E0,-1.708176255E0
6.413479760E-1,-1.400698543E0,-6.318547249E0,-1.710569143E0
6.438732370E-1,-1.460818172E0,-6.448058605E0,-1.710569143E0
6.463985490E-1,-1.580459356E0,-6.608377934E0,-1.732403636E0
6.489238100E-1,-1.736291885E0,-6.718746662E0,-1.768295884E0
6.514491220E-1,-1.920539260E0,-6.943672180E0,-1.785045743E0
6.539743830E-1,-2.097907305E0,-7.135396957E0,-1.806581140E0
6.564996950E-1,-2.248954296E0,-7.339086056E0,-1.777867198E0
6.590249550E-1,-2.375773668E0,-7.616952896E0,-1.753939033E0
6.615502680E-1,-2.500499725E0,-7.861319542E0,-1.744367719E0
6.641143300E-1,-2.589034081E0,-8.151150703E0,-1.753939033E0
6.666008410E-1,-2.850150824E0,-8.306982994E0,-1.758724689E0
6.691261010E-1,-3.240479946E0,-8.390731812E0,-1.856830359E0
6.716514140E-1,-3.518346548E0,-8.568099976E0,-1.995913148E0
6.741766740E-1,-3.638286829E0,-8.733204842E0,-2.091626167E0
6.767019870E-1,-3.738785267E0,-8.915358543E0,-2.189731836E0
6.792272470E-1,-3.849154234E0,-9.032606125E0,-2.309672117E0
6.817525600E-1,-3.904189348E0,-9.190832138E0,-2.438884497E0
6.842778200E-1,-3.942474365E0,-9.322437286E0,-2.561217546E0
6.868031330E-1,-4.021437645E0,-9.435198784E0,-2.719143867E0
6.893283930E-1,-4.062115669E0,-9.533304214E0,-2.836691141E0
6.918537050E-1,-4.091128349E0,-9.621838570E0,-2.915654421E0
6.943789660E-1,-4.141377926E0,-9.633803368E0,-3.037688255E0
6.969042780E-1,-4.160520554E0,-9.619445801E0,-3.212663412E0
6.994295390E-1,-4.241876125E0,-9.617053032E0,-3.286840916E0
7.019548510E-1,-4.282554150E0,-9.511769295E0,-3.354139090E0
7.044801120E-1,-4.328018188E0,-9.425627708E0,-3.404388428E0
7.070054240E-1,-4.299304008E0,-9.351150513E0,-3.480958700E0
7.095306850E-1,-4.316053867E0,-9.248259544E0,-3.535993576E0
7.120559970E-1,-4.313661098E0,-9.090034485E0,-3.696611881E0
7.145812580E-1,-4.229912281E0,-8.987142563E0,-3.835395575E0
7.171065700E-1,-4.241876125E0,-8.958429337E0,-3.924229145E0
7.196318300E-1,-4.256233215E0,-8.816953659E0,-4.074976921E0
7.221571430E-1,-4.249054909E0,-8.757132530E0,-4.159024715E0
7.246824030E-1,-4.299304008E0,-8.771489143E0,-4.350450516E0
7.272077160E-1,-4.514957428E0,-8.793025017E0,-4.590032101E0
7.297329760E-1,-4.771288395E0,-8.850751877E0,-4.932504654E0
7.322582890E-1,-5.200201988E0,-8.929715157E0,-5.299204826E0
7.347835490E-1,-5.720042706E0,-9.056534767E0,-5.691926956E0
7.373088620E-1,-6.239883423E0,-9.272188187E0,-6.092126369E0
7.398341220E-1,-6.898507595E0,-9.530911446E0,-6.494419575E0
7.423594350E-1,-7.480561733E0,-9.801599503E0,-6.834798813E0
7.448846950E-1,-7.995616913E0,-1.013210869E1,-7.047760010E0
7.474100080E-1,-8.424530029E0,-1.041715336E1,-7.270591736E0
7.499352680E-1,-8.656932831E0,-1.081496048E1,-7.395317554E0
7.524605800E-1,-8.496315002E0,-1.115743256E1,-7.246663570E0
7.549858410E-1,-8.122735977E0,-1.133001518E1,-6.868298531E0
7.575111530E-1,-7.516454220E0,-1.152652550E1,-6.439384937E0
7.600364140E-1,-6.771687984E0,-1.162941742E1,-6.003293037E0
7.625617260E-1,-5.971588135E0,-1.162463188E1,-5.718247890E0
7.650869870E-1,-5.161916733E0,-1.156481075E1,-5.586642742E0
7.676122990E-1,-4.395316124E0,-1.155763245E1,-5.581857204E0
7.701375600E-1,-3.686143398E0,-1.153370380E1,-5.600999832E0
7.726628720E-1,-2.941078186E0,-1.165813065E1,-5.512465000E0
7.751881330E-1,-2.368595362E0,-1.192164040E1,-5.292026520E0
7.777134450E-1,-1.918146491E0,-1.229282761E1,-4.642673969E0
7.802387050E-1,-1.465603828E0,-1.281266785E1,-3.727718592E0
7.827640180E-1,-1.149452209E0,-1.343809223E1,-2.690429926E0
7.852892780E-1,-9.768698215E-1,-1.401296806E1,-1.334596872E0
7.878145910E-1,-8.018946648E-1,-1.457587910E1,2.368894368E-1
7.903398510E-1,-5.886343718E-1,-1.511725521E1,1.743470430E0
7.928651640E-1,-2.892324328E-1,-1.563948917E1,3.051447153E0
7.953904240E-1,-6.640082598E-2,-1.616890144E1,4.012165546E0
7.979156850E-1,1.495514158E-2,-1.653290939E1,4.622933388E0
8.004409970E-1,-1.794616925E-3,-1.666720581E1,5.049454212E0
8.029662580E-1,-4.187439568E-3,-1.647069550E1,5.336891651E0
8.054915700E-1,3.409772366E-2,-1.592931938E1,5.391926765E0
8.080168300E-1,6.999006122E-2,-1.523211098E1,5.178666592E0
8.105421430E-1,-1.854437590E-2,-1.458784294E1,4.625326157E0
8.130674030E-1,-3.251247704E-1,-1.403450298E1,3.909274101E0
8.155927160E-1,-7.707880139E-1,-1.366810226E1,3.171387196E0
8.181180280E-1,-1.446461320E0,-1.363669586E1,2.366501570E0
8.206432890E-1,-2.387737989E0,-1.393161201E1,1.590329766E0
8.231685490E-1,-3.549752474E0,-1.468594933E1,6.993024349E-1
8.256938620E-1,-4.986941338E0,-1.589821243E1,-2.949153781E-1
8.282191740E-1,-6.589534283E0,-1.773320770E1,-1.686640859E0
8.307444350E-1,-8.304590225E0,-2.014547348E1,-4.264308929E0
8.332696950E-1,-1.010130119E1,-2.301506615E1,-8.813364029E0
8.357950080E-1,-1.073360443E1,-2.577010155E1,-1.243310642E1
8.383202680E-1,-9.718150139E0,-2.772473907E1,-1.384158134E1
8.408455800E-1,-7.744071484E0,-2.871417046E1,-1.443081379E1
8.433708930E-1,-5.255236626E0,-2.897289467E1,-1.507747459E1
8.458961530E-1,-2.390130758E0,-2.852483940E1,-1.503201103E1
8.484214660E-1,5.347958803E-1,-2.742533684E1,-1.398754406E1
8.509467260E-1,3.617648840E0,-2.567169762E1,-1.175982571E1
8.534719870E-1,6.475576401E0,-2.316850471E1,-8.338987350E0
8.560361010E-1,8.746364594E0,-2.032732773E1,-4.959125042E0
8.585225600E-1,1.008544827E1,-1.748405647E1,-2.537289381E0
8.610478720E-1,1.055982590E1,-1.494945812E1,-7.286145091E-1
8.635731330E-1,1.024128056E1,-1.280070400E1,3.134597540E-1
