"Time (s)","Acceleration x (m/s^2)","Acceleration y (m/s^2)","Acceleration z (m/s^2)"
3.489578200E-2,-2.811865807E0,-1.280548954E1,-6.736393929E0
3.741833400E-2,-2.775973320E0,-1.285125256E1,-6.695715904E0
3.994343800E-2,-2.701496840E0,-1.274088287E1,-6.458527565E0
4.246854200E-2,-2.658426046E0,-1.271456242E1,-6.271588326E0
4.499645900E-2,-2.711068153E0,-1.265713406E1,-6.163911343E0
4.751885500E-2,-2.833401203E0,-1.264517021E1,-6.037091732E0
5.003937500E-2,-2.969791889E0,-1.270020485E1,-5.893223286E0
5.266468800E-2,-3.106482029E0,-1.285125256E1,-5.749653816E0
5.518520900E-2,-3.204587698E0,-1.302353573E1,-5.498108387E0
5.770573000E-2,-3.331706524E0,-1.319611740E1,-5.176871777E0
6.022625000E-2,-3.391526937E0,-1.338305664E1,-4.765007019E0
6.022630200E-2,-3.374777317E0,-1.356969738E1,-4.192524433E0
6.520010500E-2,-3.132802963E0,-1.373031521E1,-3.531208038E0
6.772062500E-2,-2.826222658E0,-1.399861050E1,-2.776571512E0
7.026468800E-2,-2.550748825E0,-1.417328644E1,-2.062912226E0
7.280880200E-2,-2.344667196E0,-1.416371536E1,-1.387238979E0
7.535286500E-2,-1.990230203E0,-1.405125237E1,-7.740781307E-1
7.789692700E-2,-1.611566067E0,-1.394118309E1,-4.938187599E-1
8.041744800E-2,-1.249950767E0,-1.378295708E1,-3.595215976E-1
8.295526100E-2,-9.266205430E-1,-1.355773354E1,-1.417747438E-1
8.544385500E-2,-5.479564071E-1,-1.329900932E1,2.105683982E-1
8.792588600E-2,-2.318046987E-1,-1.302114296E1,4.091726840E-1
9.053687500E-2,-1.193420291E-1,-1.274327564E1,5.530411601E-1
9.301921900E-2,7.776673418E-3,-1.247498131E1,7.974081635E-1
9.550125000E-2,6.759724021E-2,-1.215882874E1,1.048953652E0
9.815520900E-2,7.477571070E-2,-1.186421299E1,1.350748420E0
1.005946360E-1,-1.615155302E-2,-1.159113216E1,1.647757530E0
1.031197400E-1,-2.054836452E-1,-1.124626637E1,1.925624013E0
1.056017710E-1,-5.096712112E-1,-1.093938732E1,2.275275230E0
1.081852090E-1,-7.731808424E-1,-1.064477062E1,2.651546478E0
1.107686460E-1,-1.003190875E0,-1.042911720E1,3.061018467E0
1.132202610E-1,-1.221236825E0,-1.031426239E1,3.432504177E0
1.157453650E-1,-1.333699465E0,-1.025204849E1,3.818047523E0
1.182705210E-1,-1.420140266E0,-1.013450146E1,4.261318207E0
1.207956250E-1,-1.477568030E0,-9.870991707E0,4.677968502E0
1.233207820E-1,-1.585245013E0,-9.559625626E0,5.027918816E0
1.258458860E-1,-1.556531072E0,-9.293723106E0,5.356034279E0
1.283710420E-1,-1.525424480E0,-9.006285667E0,5.727221012E0
1.308961980E-1,-1.417747378E0,-8.821739197E0,6.158527374E0
1.334212500E-1,-1.336092353E0,-8.682954788E0,6.587440968E0
1.359464070E-1,-1.340878010E0,-8.510373116E0,6.925127983E0
1.384715630E-1,-1.340878010E0,-8.362017632E0,7.131209850E0
1.409966670E-1,-1.302592874E0,-8.323732376E0,7.253243446E0
1.435217710E-1,-1.228415370E0,-8.249256134E0,7.238886833E0
1.460469270E-1,-1.166201949E0,-8.210970879E0,7.121638298E0
1.485720840E-1,-1.072582722E0,-8.117650986E0,6.809973240E0
1.510971360E-1,-1.094118118E0,-7.937890053E0,6.345466614E0
1.536222920E-1,-1.175773263E0,-7.763214111E0,5.727221012E0
1.561473960E-1,-1.324128270E0,-7.588238716E0,5.049454212E0
1.586725520E-1,-1.456032634E0,-7.502097130E0,4.266103745E0
1.611977090E-1,-1.511067510E0,-7.489833832E0,3.415754318E0
1.637228130E-1,-1.503889084E0,-7.418049335E0,2.428714991E0
1.662479170E-1,-1.460818172E0,-7.441977501E0,1.173380375E0
1.687730730E-1,-1.393520117E0,-7.557132244E0,-4.124628007E-1
1.712981770E-1,-1.331306696E0,-7.686344624E0,-2.000698805E0
1.738233340E-1,-1.321735382E0,-7.866105556E0,-3.519243956E0
1.763484380E-1,-1.309771299E0,-8.012067795E0,-4.954339504E0
1.788735420E-1,-1.254736423E0,-8.141578674E0,-6.269195557E0
1.813986980E-1,-1.185344458E0,-8.172685623E0,-6.992724895E0
1.839238020E-1,-1.134796143E0,-8.151150703E0,-7.337590694E0
1.864489590E-1,-1.228415370E0,-8.155936241E0,-7.733004570E0
1.889740630E-1,-1.302592874E0,-8.230113029E0,-8.303094864E0
1.914992190E-1,-1.408176184E0,-8.230113029E0,-8.894720078E0
1.940243230E-1,-1.518245935E0,-8.304590225E0,-9.462417603E0
1.965494270E-1,-1.534995675E0,-8.345268250E0,-9.836296082E0
1.990745840E-1,-1.534995675E0,-8.328517914E0,-9.845867157E0
2.015996880E-1,-1.506281853E0,-8.239685059E0,-9.591928482E0
2.041248440E-1,-1.690828323E0,-8.199007034E0,-8.969196320E0
2.066499480E-1,-1.934896231E0,-8.187042236E0,-8.027621269E0
2.091751050E-1,-2.093121529E0,-8.189435959E0,-7.093522549E0
2.117002090E-1,-2.234597206E0,-8.086544037E0,-6.147161484E0
2.142253130E-1,-2.347059965E0,-8.069794655E0,-5.217848778E0
2.167504690E-1,-2.522035122E0,-7.887640953E0,-4.199702740E0
2.192755730E-1,-2.684746981E0,-7.681559086E0,-3.277269602E0
2.218007300E-1,-2.826222658E0,-7.480262756E0,-2.335993052E0
2.243258340E-1,-2.914757013E0,-7.226623535E0,-1.569392562E0
2.268509900E-1,-2.969791889E0,-6.869494915E0,-8.171489239E-1
2.293760940E-1,-3.068196774E0,-6.491129398E0,-1.728814393E-1
2.319012500E-1,-3.151945591E0,-6.110072613E0,3.613162339E-1
2.344263550E-1,-3.324527979E0,-5.686244011E0,8.045865893E-1
2.369514590E-1,-3.501596928E0,-5.231009483E0,1.111167073E0
2.394766150E-1,-3.700500250E0,-4.804488659E0,1.333998680E0
2.420017190E-1,-3.861118555E0,-4.361517429E0,1.362712502E0
2.445268750E-1,-3.760320902E0,-3.975674868E0,9.819545746E-1
2.470519800E-1,-3.503989697E0,-3.695415497E0,4.429712892E-1
2.495771360E-1,-3.317349434E0,-3.496811152E0,1.483550072E-1
2.521022400E-1,-3.125624657E0,-3.228515863E0,-1.250249892E-1
2.546273960E-1,-2.881257534E0,-2.907279491E0,-4.459623098E-1
2.571525000E-1,-2.670390129E0,-2.655734062E0,-7.070791125E-1
2.596776050E-1,-2.512463808E0,-2.267797709E0,-9.681958556E-1
2.622027610E-1,-2.289632082E0,-1.949253201E0,-1.173978567E0
2.647278650E-1,-2.308774710E0,-1.704886079E0,-1.185942769E0
2.672529690E-1,-2.366202593E0,-1.383948803E0,-1.353739381E0
2.697781250E-1,-2.375773668E0,-1.115653515E0,-1.500000715E0
2.723032300E-1,-2.373380899E0,-9.933205247E-1,-1.614856124E0
2.748283860E-1,-2.382952213E0,-8.090731502E-1,-1.662712693E0
2.773534900E-1,-2.380559444E0,-7.226324677E-1,-1.691426516E0
2.798786460E-1,-2.435594320E0,-7.034898400E-1,-1.751546144E0
2.824037500E-1,-2.461915493E0,-8.138588071E-1,-1.859223247E0
2.849288550E-1,-2.440380096E0,-9.669994712E-1,-1.904686809E0
2.874540110E-1,-2.577069998E0,-1.043569803E0,-1.976471543E0
2.899791670E-1,-2.764009237E0,-1.096511006E0,-2.024626970E0
2.925042710E-1,-2.914757013E0,-1.206580877E0,-2.041376829E0
2.950294270E-1,-3.017947674E0,-1.415055513E0,-2.139482498E0
2.975545320E-1,-3.216551781E0,-1.450947881E0,-2.216052771E0
3.000796360E-1,-3.470490217E0,-1.544267893E0,-2.177767754E0
3.026047920E-1,-3.681357622E0,-1.640279889E0,-2.204088688E0
3.051298960E-1,-3.877868176E0,-1.735992789E0,-2.230409861E0
3.076550520E-1,-3.980759621E0,-1.939681888E0,-2.184946060E0
3.101801570E-1,-4.069293976E0,-2.174477577E0,-2.098804474E0
3.127052610E-1,-4.143770695E0,-2.270190477E0,-2.043769598E0
3.152304170E-1,-4.105485439E0,-2.414058924E0,-1.983649969E0
3.177555210E-1,-4.057330132E0,-2.519343138E0,-1.844866276E0
3.202806770E-1,-4.098307133E0,-2.545664072E0,-1.806581140E0
3.228057820E-1,-4.002295017E0,-2.581556559E0,-1.775474429E0
3.253308860E-1,-3.930510283E0,-2.687139750E0,-1.847259045E0
3.278560420E-1,-3.846761465E0,-2.708675146E0,-1.866401672E0
3.303811460E-1,-3.731606960E0,-2.756531715E0,-1.990828395E0
3.329063020E-1,-3.600001574E0,-2.828316450E0,-2.220838547E0
3.354314070E-1,-3.537489176E0,-2.775674343E0,-2.381456852E0
3.379565630E-1,-3.484847069E0,-2.739781857E0,-2.635395050E0
3.404816670E-1,-3.499203920E0,-2.617448807E0,-2.915654421E0
3.430067710E-1,-3.580859184E0,-2.524128675E0,-3.136093140E0
3.455319270E-1,-3.640679598E0,-2.459522486E0,-3.382853031E0
3.480570840E-1,-3.664607763E0,-2.368296146E0,-3.514458179E0
3.506985420E-1,-3.671786308E0,-2.248655081E0,-3.655933857E0
3.532236460E-1,-3.707678795E0,-2.205584288E0,-3.768396616E0
3.557488020E-1,-3.695714474E0,-2.253440619E0,-3.847359657E0
3.582739070E-1,-3.647858143E0,-2.339582443E0,-3.907479286E0
3.607990630E-1,-3.571287870E0,-2.322832584E0,-3.895515203E0
3.633241670E-1,-3.518346548E0,-2.488236427E0,-3.912265062E0
3.658493230E-1,-3.448954821E0,-2.624627352E0,-3.893122435E0
3.683744270E-1,-3.355634689E0,-2.799602509E0,-3.988835335E0
3.708995320E-1,-3.271586657E0,-3.000898600E0,-4.024727821E0
3.734246880E-1,-3.135195971E0,-3.240479946E0,-4.178167343E0
3.759885940E-1,-3.013161898E0,-3.451048374E0,-4.290630341E0
3.784748960E-1,-2.893221617E0,-3.633202076E0,-4.415356159E0
3.810000520E-1,-2.759223700E0,-3.781856298E0,-4.599603176E0
3.835251570E-1,-2.615355253E0,-3.956532240E0,-4.784149647E0
3.860503130E-1,-2.591426849E0,-4.109972000E0,-4.932504654E0
3.885754170E-1,-2.541177750E0,-4.217648983E0,-5.090730190E0
3.911005730E-1,-2.550748825E0,-4.337589264E0,-5.145765305E0
3.936256770E-1,-2.579462767E0,-4.466801643E0,-5.289633751E0
3.961508340E-1,-2.641676188E0,-4.512265205E0,-5.404489040E0
3.986759380E-1,-2.807080030E0,-4.512265205E0,-5.591428280E0
4.012010940E-1,-2.890828848E0,-4.562813759E0,-5.780760288E0
4.037261980E-1,-2.960220814E0,-4.577170849E0,-6.008078575E0
4.062513020E-1,-3.017947674E0,-4.622634411E0,-6.293422699E0
4.087764590E-1,-3.049054146E0,-4.653740883E0,-6.585646152E0
4.113015630E-1,-3.113660574E0,-4.711168766E0,-6.858726978E0
4.138267190E-1,-3.149552822E0,-4.749454021E0,-7.129415035E0
4.163518230E-1,-3.147160053E0,-4.778167725E0,-7.457530975E0
4.188769800E-1,-3.120838881E0,-4.792524815E0,-7.711469173E0
4.214020840E-1,-3.111267567E0,-4.802095890E0,-8.003692627E0
4.239271880E-1,-3.106482029E0,-4.778167725E0,-8.327022552E0
4.264523440E-1,-3.032304525E0,-4.773382187E0,-8.674281120E0
4.289774480E-1,-3.051447153E0,-4.759025097E0,-9.019445419E0
4.315026050E-1,-3.017947674E0,-4.713561535E0,-9.433703423E0
4.340665110E-1,-2.996113062E0,-4.694418907E0,-9.917651176E0
4.365528130E-1,-2.996113062E0,-4.634598255E0,-1.041595650E1
4.390779690E-1,-2.981756210E0,-4.627419949E0,-1.098126125E1
4.416419270E-1,-3.010469913E0,-4.622634411E0,-1.157767200E1
4.441282300E-1,-3.051447153E0,-4.584349155E0,-1.226530933E1
4.466533340E-1,-3.125624657E0,-4.593920231E0,-1.310130215E1
4.491784900E-1,-3.163909674E0,-4.625027180E0,-1.408834171E1
4.517035940E-1,-3.144767046E0,-4.634598255E0,-1.504158211E1
4.542675520E-1,-3.381955624E0,-4.660919189E0,-1.652453423E1
4.567538550E-1,-3.892225027E0,-4.814060211E0,-1.812952042E1
4.592789590E-1,-4.512564182E0,-5.048855782E0,-1.954995918E1
4.618041150E-1,-5.245665550E0,-5.449055195E0,-2.082204437E1
4.643680210E-1,-6.100800514E0,-5.899504185E0,-2.201247215E1
4.668543750E-1,-7.003791809E0,-6.500700951E0,-2.126022911E1
4.693794800E-1,-7.981259823E0,-7.195217609E0,-1.862782478E1
4.719046360E-1,-8.980263710E0,-7.868498325E0,-1.429651737E1
4.744685420E-1,-9.758828163E0,-8.587242126E0,-8.937790871E0
4.769548960E-1,-9.873683929E0,-9.334401131E0,-3.780360699E0
4.794800000E-1,-9.396913528E0,-1.013689423E1,3.798605874E-2
4.820051570E-1,-8.362017632E0,-1.084845924E1,1.861017823E0
4.845302610E-1,-7.344171047E0,-1.146879864E1,1.374676585E0
4.870553650E-1,-6.745068073E0,-1.205833054E1,-9.128618240E-1
4.895805210E-1,-6.491428852E0,-1.255872917E1,-4.139882088E0
4.921056250E-1,-6.235097408E0,-1.308096313E1,-7.162914753E0
4.946307820E-1,-5.751149178E0,-1.358883953E1,-9.261420250E0
4.971558860E-1,-5.171487808E0,-1.395314693E1,-1.014048290E1
4.996810420E-1,-4.577170849E0,-1.400100327E1,-9.948758125E0
5.022061460E-1,-4.249054909E0,-1.386431313E1,-9.158229828E0
5.047312500E-1,-4.244269371E0,-1.353619766E1,-8.626424789E0
5.072564070E-1,-4.404887199E0,-1.310010624E1,-8.779864311E0
5.097815110E-1,-4.752145767E0,-1.265474129E1,-9.235098839E0
5.123066670E-1,-5.274379253E0,-1.209900856E1,-9.462417603E0
5.148317710E-1,-5.796612740E0,-1.143051338E1,-8.942576408E0
5.173568750E-1,-6.287739754E0,-1.060409260E1,-7.601100445E0
5.198820320E-1,-6.596713066E0,-9.658030510E0,-5.517251015E0
5.224071360E-1,-6.632605076E0,-8.587242126E0,-3.250948668E0
5.249322920E-1,-6.505785465E0,-7.526025295E0,-1.411167145E0
5.274574480E-1,-6.316453457E0,-6.486343861E0,-5.177469850E-1
5.299825520E-1,-6.040979862E0,-5.664708614E0,-5.201398134E-1
5.325076570E-1,-5.734399319E0,-4.993820667E0,-1.181157112E0
5.350328130E-1,-5.504389286E0,-4.512265205E0,-2.103590250E0
5.375579170E-1,-5.341378212E0,-4.078865528E0,-3.078665495E0
5.400830730E-1,-5.171487808E0,-3.728914976E0,-4.024727821E0
5.426081770E-1,-4.878965378E0,-3.580559969E0,-4.836791992E0
5.451333340E-1,-4.562813759E0,-3.535096407E0,-5.313561916E0
5.476584380E-1,-4.213162422E0,-3.580559969E0,-5.430809975E0
5.501835940E-1,-3.875475407E0,-3.812962770E0,-5.430809975E0
5.527086980E-1,-3.573680639E0,-4.009174347E0,-5.411667347E0
5.552338550E-1,-3.271586657E0,-4.406980991E0,-5.335097313E0
5.577589590E-1,-3.051447153E0,-4.888536453E0,-5.164907455E0
5.602841150E-1,-2.986541748E0,-5.516054630E0,-4.906183720E0
5.628092190E-1,-2.938685417E0,-6.150750637E0,-4.733900547E0
5.653343230E-1,-2.991327524E0,-6.840780735E0,-4.666602135E0
5.678594800E-1,-3.046661377E0,-7.535596848E0,-4.645066738E0
5.703845840E-1,-3.077768087E0,-8.172685623E0,-4.659423828E0
5.729097400E-1,-2.993720293E0,-8.709276199E0,-4.558925152E0
5.754736980E-1,-2.893221617E0,-9.250652313E0,-4.381557465E0
5.779600000E-1,-2.828615427E0,-9.921540260E0,-4.077369690E0
5.804851050E-1,-2.780759096E0,-1.056102180E1,-3.665505171E0
5.830102610E-1,-2.795115948E0,-1.108086300E1,-3.227020502E0
5.855353650E-1,-2.888436079E0,-1.156481075E1,-2.982653379E0
5.880605210E-1,-2.981756210E0,-1.193121147E1,-2.997010469E0
5.905856250E-1,-2.993720293E0,-1.224736404E1,-3.160021305E0
5.931107820E-1,-3.037090063E0,-1.253480148E1,-3.428316593E0
5.956358860E-1,-3.013161898E0,-1.261645603E1,-3.742075443E0
5.981998440E-1,-2.941078186E0,-1.261406326E1,-3.981656790E0
6.006823440E-1,-2.888436079E0,-1.251087284E1,-4.168596268E0
6.031993230E-1,-2.854936600E0,-1.227607727E1,-4.283451557E0
6.057163020E-1,-2.749652386E0,-1.198863983E1,-4.324129581E0
6.082332820E-1,-2.656033039E0,-1.161505985E1,-4.374378681E0
6.107502610E-1,-2.572284460E0,-1.119811058E1,-4.331307888E0
6.132672400E-1,-2.449951172E0,-1.076949692E1,-4.300201416E0
6.157842190E-1,-2.421237469E0,-1.028315544E1,-4.151846409E0
6.183011980E-1,-2.414058924E0,-9.801599503E0,-4.101297855E0
6.208181770E-1,-2.414058924E0,-9.312865257E0,-3.996013880E0
6.233351570E-1,-2.392523527E0,-8.860322952E0,-3.897907972E0
6.258521360E-1,-2.406880379E0,-8.426624298E0,-3.773182154E0
6.283691150E-1,-2.416451693E0,-8.048258781E0,-3.732504129E0
6.309839070E-1,-2.428415775E0,-7.695915699E0,-3.684647799E0
6.335008860E-1,-2.418844700E0,-7.370193005E0,-3.718147278E0
6.360178650E-1,-2.430808783E0,-7.080362320E0,-3.677469254E0
6.385348440E-1,-2.442772865E0,-6.840780735E0,-3.679862022E0
6.410518230E-1,-2.426023006E0,-6.651448727E0,-3.658326626E0
6.435688020E-1,-2.416451693E0,-6.474380016E0,-3.672683716E0
6.460857820E-1,-2.347059965E0,-6.344868183E0,-3.710968733E0
6.486027610E-1,-2.339881420E0,-6.294619083E0,-3.699004650E0
6.511197400E-1,-2.299203396E0,-6.239583969E0,-3.715754509E0
6.536367190E-1,-2.256132603E0,-6.227620125E0,-3.687040567E0
6.561536980E-1,-2.225025892E0,-6.280261993E0,-3.675076485E0
6.586706770E-1,-2.114656925E0,-6.419045925E0,-3.583850145E0
6.612854690E-1,-2.050050735E0,-6.567699909E0,-3.545564890E0
6.638024480E-1,-1.942373753E0,-6.771389008E0,-3.466601849E0
6.663194270E-1,-1.827219248E0,-7.051648140E0,-3.406781197E0
6.688364070E-1,-1.707578063E0,-7.334300518E0,-3.315554857E0
6.713533860E-1,-1.578066587E0,-7.621738434E0,-3.296412230E0
6.738703650E-1,-1.352842093E0,-7.971389771E0,-3.171985626E0
6.763873440E-1,-1.134796143E0,-8.378767967E0,-3.056830883E0
6.789043230E-1,-9.505487680E-1,-8.716454506E0,-2.985046148E0
6.814213020E-1,-7.588238716E-1,-9.023035049E0,-2.949153900E0
6.839382820E-1,-5.407779217E-1,-9.365508080E0,-2.944368362E0
6.864552610E-1,-3.275175989E-1,-9.677172661E0,-2.889333248E0
6.889722400E-1,-1.695913076E-1,-9.986145973E0,-2.889333248E0
6.915870320E-1,3.649054468E-2,-1.025683403E1,-2.851048231E0
6.941040110E-1,2.090728730E-1,-1.047248745E1,-2.767000198E0
6.966209900E-1,3.669991791E-1,-1.069980526E1,-2.704786777E0
6.991379690E-1,5.156532526E-1,-1.081735325E1,-2.628216505E0
7.016549480E-1,6.041877270E-1,-1.091545868E1,-2.542074919E0
7.041719270E-1,6.879364848E-1,-1.086281681E1,-2.462812662E0
7.066889070E-1,7.935197949E-1,-1.081496048E1,-2.381456852E0
7.092058860E-1,8.198408484E-1,-1.075753212E1,-2.350350142E0
7.117228650E-1,8.724829555E-1,-1.067109203E1,-2.307279348E0
7.142398440E-1,8.892326951E-1,-1.052034378E1,-2.256730795E0
7.167568230E-1,8.509475589E-1,-1.030708313E1,-2.228017092E0
7.192738020E-1,8.533403873E-1,-1.007946587E1,-2.196910381E0
7.218885940E-1,8.509475589E-1,-9.892526627E0,-2.180160522E0
7.244055730E-1,8.126623631E-1,-9.653244972E0,-2.211267233E0
7.269225520E-1,6.927221417E-1,-9.478269577E0,-2.242373943E0
7.294395320E-1,6.233302951E-1,-9.308079720E0,-2.273779631E0
7.319565110E-1,5.539384484E-1,-9.128618240E0,-2.295315027E0
7.344734900E-1,4.148556292E-1,-8.915358543E0,-2.328814745E0
7.369904690E-1,2.784647346E-1,-8.761918068E0,-2.388635159E0
7.395074480E-1,8.195417374E-2,-8.613563538E0,-2.520240545E0
7.420244270E-1,-1.073779166E-1,-8.474480629E0,-2.517847538E0
7.445414070E-1,-2.748754919E-1,-8.431409836E0,-2.486740828E0
7.470583860E-1,-4.953143001E-1,-8.383553505E0,-2.412563324E0
7.495753650E-1,-6.702894568E-1,-8.393124580E0,-2.355135679E0
7.521901570E-1,-9.337990284E-1,-8.390731812E0,-2.429313183E0
7.547071360E-1,-1.249950767E0,-8.397910118E0,-2.474776745E0
7.572241150E-1,-1.511067510E0,-8.409873962E0,-2.539682150E0
7.597410940E-1,-1.815255046E0,-8.402695656E0,-2.654537678E0
7.622580730E-1,-2.073979139E0,-8.424231529E0,-2.769393206E0
7.647750520E-1,-2.335095882E0,-8.474480629E0,-2.822334290E0
7.672920320E-1,-2.569891453E0,-8.486444473E0,-2.855833769E0
7.698090110E-1,-2.761616468E0,-8.500801086E0,-2.889333248E0
7.723259900E-1,-2.847758055E0,-8.546265602E0,-2.891726255E0
7.748429690E-1,-2.900400162E0,-8.606385231E0,-2.882154942E0
7.773599480E-1,-2.933899641E0,-8.666205406E0,-2.846262455E0
7.798769270E-1,-2.890828848E0,-8.697312355E0,-2.745464802E0
7.824917190E-1,-2.912364244E0,-8.702097893E0,-2.633002281E0
7.850086980E-1,-2.826222658E0,-8.673383713E0,-2.513062000E0
7.875256770E-1,-2.732603550E0,-8.678169250E0,-2.328814745E0
7.900426570E-1,-2.512463808E0,-8.685347557E0,-2.137089729E0
7.925596360E-1,-2.327917337E0,-8.632705688E0,-1.993221283E0
7.950766150E-1,-2.124228239E0,-8.615956306E0,-1.830509305E0
7.975935940E-1,-1.894218206E0,-8.572885513E0,-1.708176255E0
8.001105730E-1,-1.724327803E0,-8.584849358E0,-1.653141379E0
8.026275520E-1,-1.647458434E0,-8.632705688E0,-1.631605983E0
8.051445320E-1,-1.513460279E0,-8.623134613E0,-1.593320727E0
8.076615110E-1,-1.350449324E0,-8.599205971E0,-1.523928881E0
8.101784900E-1,-1.192523003E0,-8.584849358E0,-1.430309772E0
8.127933340E-1,-1.046261668E0,-8.560622215E0,-1.332203984E0
8.153103130E-1,-9.266205430E-1,-8.551051140E0,-1.255633712E0
8.178272920E-1,-7.660023570E-1,-8.553443909E0,-1.135693431E0
8.203442710E-1,-6.559324861E-1,-8.555836678E0,-1.037587762E0
8.228612500E-1,-6.104688644E-1,-8.507980347E0,-9.104689956E-1
8.253782300E-1,-5.838487148E-1,-8.436195374E0,-7.788637877E-1
8.278952090E-1,-5.886343718E-1,-8.397910118E0,-7.214360237E-1
8.304121880E-1,-5.312066078E-1,-8.321339607E0,-6.182455420E-1
8.329291670E-1,-5.551348329E-1,-8.256434441E0,-5.536393523E-1
8.354461460E-1,-5.647061467E-1,-8.175078392E0,-5.273182988E-1
8.379631250E-1,-6.005984545E-1,-8.069794655E0,-5.081757307E-1
8.404801050E-1,-6.846463680E-1,-8.012067795E0,-5.536393523E-1
8.430948960E-1,-7.827520967E-1,-7.952247143E0,-6.182455420E-1
8.456118750E-1,-8.114659786E-1,-7.846962929E0,-6.469594240E-1
8.481288550E-1,-9.361918569E-1,-7.741379261E0,-7.357929349E-1
8.506458340E-1,-1.108475089E0,-7.698308468E0,-8.338986635E-1
8.531628130E-1,-1.170987606E0,-7.600203037E0,-9.346963167E-1
8.556797920E-1,-1.362413406E0,-7.588238716E0,-1.083051324E0
8.581967710E-1,-1.575673699E0,-7.557132244E0,-1.207777262E0
8.607137500E-1,-1.714756489E0,-7.533204079E0,-1.365703583E0
8.632307300E-1,-1.920539260E0,-7.533204079E0,-1.533500195E0
8.657477090E-1,-2.133799553E0,-7.564310551E0,-1.643570065E0
8.682646880E-1,-2.347059965E0,-7.595417500E0,-1.782652855E0
