"Time (s)","X (rad/s)","Y (rad/s)","Z (rad/s)"
6.749041670E-3,-1.163067698E0,-1.462408066E0,7.554199696E-1
1.669404167E-2,-1.047627687E0,-1.275388479E0,7.214810252E-1
2.663904167E-2,-8.716462851E-1,-1.073203206E0,6.629713774E-1
3.658504167E-2,-6.446260810E-1,-9.279308319E-1,5.337275267E-1
4.653004167E-2,-3.817020357E-1,-7.987393141E-1,3.438745737E-1
5.647504167E-2,-1.157424524E-1,-6.664791703E-1,1.385641843E-1
6.642104167E-2,1.120393127E-1,-5.746361017E-1,-5.968259275E-2
7.636604167E-2,2.551242113E-1,-4.566671550E-1,-1.218076944E-1
8.631104167E-2,3.131755292E-1,-4.188476205E-1,-1.331754029E-1
9.625604167E-2,2.312008739E-1,-6.343179345E-1,-1.548795551E-1
1.062020417E-1,9.588112682E-2,-8.281662464E-1,-2.712354660E-1
1.161470417E-1,-2.450881526E-2,-7.971448898E-1,-3.675571382E-1
1.260920417E-1,-1.367623806E-1,-5.155971050E-1,-4.283427298E-1
1.360370417E-1,-2.942946851E-1,-2.642275989E-1,-4.357070327E-1
1.459830417E-1,-4.807364643E-1,-7.424194366E-2,-3.686757982E-1
1.559280417E-1,-6.635742188E-1,9.535963833E-2,-2.607538104E-1
1.658730417E-1,-8.083793521E-1,3.056039512E-1,-1.157926321E-1
1.758180417E-1,-8.974680901E-1,5.360653400E-1,7.980825379E-3
1.857640417E-1,-9.718016982E-1,7.687747478E-1,1.215694398E-1
1.957090417E-1,-1.099886894E0,1.002005219E0,3.107041717E-1
2.056540417E-1,-1.211413980E0,1.114235163E0,5.060534477E-1
2.155990417E-1,-1.253548980E0,1.032956481E0,7.160373330E-1
2.255450417E-1,-1.141600370E0,6.758325100E-1,8.418141603E-1
2.354900417E-1,-9.123851657E-1,5.554915592E-2,8.957390785E-1
2.454350417E-1,-6.838966012E-1,-5.292607546E-1,8.777547479E-1
2.553800417E-1,-5.107675791E-1,-9.424028397E-1,7.791228294E-1
2.653260417E-1,-3.519760966E-1,-1.225310445E0,6.287365556E-1
2.752710417E-1,-1.999004930E-1,-1.337791562E0,4.391459823E-1
2.852160417E-1,-2.644722536E-2,-1.212413669E0,2.313839942E-1
2.951610417E-1,1.759468317E-1,-8.527797461E-1,5.335253477E-2
3.051070417E-1,3.524172306E-1,-3.189139962E-1,-1.364224553E-1
3.150520417E-1,4.359594584E-1,3.676567674E-1,-3.404977620E-1
3.249970417E-1,4.402876198E-1,8.930723667E-1,-4.111415744E-1
3.349430417E-1,3.896492720E-1,1.131779075E0,-4.654556215E-1
3.448880417E-1,3.065184355E-1,1.222997069E0,-4.849531651E-1
3.548330417E-1,2.017269135E-1,1.240438819E0,-5.301287174E-1
3.647780417E-1,9.251307696E-2,1.357093811E0,-5.781255364E-1
3.747240417E-1,-3.979856893E-2,1.531366944E0,-6.057181358E-1
3.846690417E-1,-1.451676041E-1,1.758993149E0,-6.617193818E-1
3.946140417E-1,-1.440006196E-1,1.967267632E0,-7.637562156E-1
4.045590417E-1,1.066485047E-2,2.006551981E0,-9.274830818E-1
4.145050417E-1,3.094359934E-1,1.716431022E0,-1.121199846E0
4.244500417E-1,5.893014669E-1,1.107595444E0,-1.313088298E0
4.343949167E-1,6.352428794E-1,3.580017388E-1,-1.515667558E0
4.443399167E-1,3.966867328E-1,-2.006484717E-1,-1.407359242E0
4.542859167E-1,-5.438856781E-3,-5.663546920E-1,-6.865915060E-1
4.642309167E-1,-4.465395808E-1,-6.437405944E-1,-1.102166548E-1
4.741759167E-1,-7.567453384E-1,-3.626624346E-1,1.650335193E-1
4.841209167E-1,-8.641309142E-1,-7.236083597E-2,2.863287628E-1
4.940669167E-1,-8.499311209E-1,8.680045605E-2,2.498563230E-1
5.040119167E-1,-7.926497459E-1,1.053365916E-1,1.668338776E-1
5.139569167E-1,-6.197907925E-1,-1.381094754E-1,3.140836209E-2
5.239019167E-1,-2.356559336E-1,-7.356581092E-1,-1.508288085E-1
5.338479167E-1,2.975542843E-1,-1.517207623E0,-3.847042322E-1
5.437929167E-1,7.775379419E-1,-2.222977877E0,-6.266736984E-1
5.537379167E-1,1.017331481E0,-2.520380259E0,-7.109429240E-1
5.636829167E-1,9.837756157E-1,-2.312939644E0,-6.478185058E-1
5.736289167E-1,7.446114421E-1,-1.653032660E0,-4.985050559E-1
5.835739167E-1,4.062525928E-1,-8.284069896E-1,-3.035550117E-1
5.935189167E-1,1.220646054E-1,-2.032440603E-1,-1.089021787E-1
6.034649167E-1,-1.351398975E-2,4.444349930E-2,6.784676015E-2
6.134099167E-1,8.850229532E-2,3.984934092E-2,2.143154889E-1
6.233549167E-1,3.766448796E-1,4.961994663E-2,3.960471749E-1
6.332999167E-1,7.304713130E-1,1.943533123E-1,6.456552744E-1
6.432459167E-1,1.047937155E0,5.539833903E-1,9.560413957E-1
6.531909167E-1,1.210892320E0,1.009108186E0,1.209642649E0
6.631359167E-1,1.144668818E0,1.449036598E0,1.241008639E0
6.730809167E-1,9.020233154E-1,1.839248896E0,1.133357525E0
6.830269167E-1,6.294122934E-1,1.985417008E0,1.000984788E0
6.929719167E-1,4.250733554E-1,1.841219902E0,8.920820951E-1
7.029169167E-1,3.393821716E-1,1.305639863E0,8.195114732E-1
7.128619167E-1,3.322191238E-1,3.996569216E-1,7.614179254E-1
7.228079167E-1,3.334170282E-1,-6.836813092E-1,6.905048490E-1
7.327529167E-1,2.706471384E-1,-1.715948343E0,6.133264899E-1
7.426979167E-1,1.473081559E-1,-2.487441778E0,4.905742109E-1
7.526429167E-1,1.558363903E-2,-2.857809782E0,4.009755552E-1
7.625889167E-1,-6.332768500E-2,-2.767657042E0,3.839587271E-1
7.725339167E-1,-6.747055799E-2,-2.292968750E0,4.199479520E-1
7.824789167E-1,-1.760522253E-3,-1.571428657E0,4.224779606E-1
7.924239167E-1,1.535924077E-1,-1.016289234E0,3.700855076E-1
8.023699167E-1,3.483405709E-1,-8.912111521E-1,2.559069991E-1
8.123149167E-1,5.352900624E-1,-1.050305247E0,1.315898299E-1
8.222599167E-1,7.095662355E-1,-1.233979940E0,2.684263885E-2
8.322059167E-1,8.767312765E-1,-1.274003625E0,-5.727872252E-2
8.421509167E-1,9.985778332E-1,-1.154569149E0,-1.322392523E-1
8.520959167E-1,1.067083955E0,-1.009812951E0,-1.732378751E-1
8.620409167E-1,1.081928253E0,-9.796164036E-1,-1.668079495E-1
8.719869167E-1,1.027812362E0,-1.021615863E0,-1.337725967E-1
8.819319167E-1,8.767400384E-1,-1.094838619E0,-8.729271591E-2
8.918769167E-1,6.821720004E-1,-1.181009769E0,-2.851393819E-2
9.018219167E-1,4.908534586E-1,-1.231733918E0,4.234185815E-2
9.117679167E-1,3.498046100E-1,-1.191233039E0,1.061987579E-1
9.217129167E-1,2.459301353E-1,-1.047698021E0,1.752611697E-1
9.316579167E-1,1.737480909E-1,-8.232880235E-1,2.648199499E-1
9.416029167E-1,1.695384234E-1,-5.907884240E-1,3.720484078E-1
9.515489167E-1,1.833277494E-1,-4.645126164E-1,4.018375576E-1
9.614939167E-1,1.423121393E-1,-4.788947403E-1,3.821322918E-1
9.714389167E-1,-3.484084271E-3,-5.672277808E-1,3.632149398E-1
9.813839167E-1,-2.191673666E-1,-5.733528137E-1,3.202733397E-1
9.913299167E-1,-4.488135874E-1,-4.720525742E-1,2.624790967E-1
1.001274917E0,-6.446864009E-1,-3.820624948E-1,2.596715987E-1
1.011219917E0,-8.176277876E-1,-3.553650379E-1,2.910428941E-1
1.021165917E0,-9.887750149E-1,-4.607556462E-1,3.467511535E-1
1.031110917E0,-1.146819949E0,-5.949655175E-1,4.586771131E-1
1.041055917E0,-1.210319638E0,-6.327528358E-1,5.905874372E-1
1.051000917E0,-1.185167432E0,-5.190674663E-1,6.839031577E-1
1.060946917E0,-1.107281923E0,-2.859753668E-1,7.284762263E-1
1.070891917E0,-9.963569045E-1,-1.088634804E-1,6.856061220E-1
1.080836917E0,-8.719023466E-1,-6.656875461E-2,5.572183132E-1
1.090781917E0,-7.511696219E-1,-1.422272325E-1,3.714439571E-1
1.100727917E0,-6.234859228E-1,-2.022937834E-1,1.498215497E-1
1.110672917E0,-5.017767549E-1,-1.846998185E-1,-7.676938176E-2
1.120617917E0,-4.261235893E-1,-1.978848726E-1,-3.015228808E-1
1.130562917E0,-3.721066117E-1,-3.052445352E-1,-5.344897509E-1
1.140508917E0,-3.392815590E-1,-4.634123445E-1,-7.408964038E-1
1.150453917E0,-3.110581636E-1,-5.465405583E-1,-8.000414968E-1
1.160398917E0,-3.107998371E-1,-4.120074809E-1,-7.055839300E-1
1.170343917E0,-3.870193660E-1,-4.818533361E-2,-5.756084919E-1
1.180289917E0,-5.496506691E-1,4.364694953E-1,-4.758893847E-1
1.190234917E0,-7.176952958E-1,8.625738025E-1,-4.268475473E-1
1.200179917E0,-8.417482376E-1,1.112573266E0,-4.142923355E-1
1.210125917E0,-8.341398239E-1,1.098251700E0,-3.927946091E-1
1.220070917E0,-8.044620752E-1,9.651198387E-1,-3.130497336E-1
1.230015917E0,-8.487759829E-1,8.024616838E-1,-1.177869886E-1
1.239960917E0,-9.605991840E-1,5.921995640E-1,1.187773496E-1
1.249906917E0,-1.091174006E0,3.827313781E-1,3.560046256E-1
1.259851917E0,-1.175790310E0,2.259236723E-1,5.483836532E-1
1.269796917E0,-1.190260172E0,9.665628523E-2,6.490089297E-1
1.279741917E0,-1.126820922E0,2.468861267E-2,6.300754547E-1
1.289687917E0,-1.008983493E0,-4.404620826E-2,5.204401016E-1
1.299632917E0,-8.484109044E-1,-9.291707724E-2,3.447540104E-1
1.309577917E0,-6.685194373E-1,-1.038722619E-1,1.374604851E-1
1.319522917E0,-4.643082321E-1,-5.146417767E-2,-8.518909663E-2
1.329468917E0,-2.448979765E-1,4.450192302E-2,-2.891261876E-1
1.339413917E0,-2.089443244E-2,1.628621221E-1,-4.621954262E-1
1.349358917E0,2.134645879E-1,3.037689924E-1,-6.092372537E-1
1.359303917E0,4.251475632E-1,5.450801253E-1,-7.451791167E-1
1.369249917E0,5.615167618E-1,8.892691731E-1,-8.400909901E-1
1.379194917E0,6.297506690E-1,1.321298599E0,-8.973641396E-1
1.389139917E0,6.388321519E-1,1.678610921E0,-8.824143410E-1
1.399084917E0,5.742505193E-1,1.822713256E0,-7.948101759E-1
1.409030917E0,4.311066270E-1,1.786034107E0,-6.662262082E-1
1.418975917E0,2.179298848E-1,1.659254432E0,-5.254070163E-1
1.428920917E0,3.131207777E-3,1.542894006E0,-3.705836833E-1
1.438867083E0,-1.425106674E-1,1.393217206E0,-2.342902720E-1
1.448812083E0,-1.015783846E-1,1.147625327E0,-1.549064219E-1
1.458757083E0,2.072178125E-1,7.796078920E-1,-1.739853173E-1
1.468702083E0,4.788908958E-1,4.120081961E-1,-3.195201755E-1
1.478648083E0,4.379669130E-1,1.978000402E-1,-3.963377476E-1
1.488593083E0,1.724222898E-1,4.020731151E-2,-3.323245347E-1
1.498538083E0,-1.973642707E-1,-1.111899316E-1,-2.015049905E-1
1.508483083E0,-5.439988971E-1,-9.446100891E-2,-5.648233369E-2
1.518429083E0,-8.295419812E-1,2.051834911E-1,1.024673730E-1
1.528374083E0,-9.640520811E-1,5.205925107E-1,2.128777206E-1
1.538319083E0,-9.463564157E-1,6.094406247E-1,2.282390893E-1
1.548264083E0,-7.801160216E-1,3.488878906E-1,1.262461841E-1
1.558210083E0,-3.578918576E-1,-3.598631620E-1,-7.664034516E-2
1.568155083E0,2.669491470E-1,-1.344179273E0,-3.711706996E-1
1.578100083E0,8.323675394E-1,-2.168807507E0,-7.043797970E-1
1.588045083E0,1.038453341E0,-2.294248343E0,-8.545680642E-1
1.597991083E0,8.968304396E-1,-1.837558031E0,-8.228335381E-1
1.607936083E0,5.518694520E-1,-1.124999404E0,-6.420258880E-1
1.617881083E0,1.852759719E-1,-5.144105554E-1,-4.047220349E-1
1.627827083E0,-6.874189526E-2,-2.112086415E-1,-1.969277263E-1
1.637772083E0,-8.478584886E-2,-1.335737556E-1,-4.485243931E-2
1.647717083E0,1.515176445E-1,-1.365212649E-1,6.469542533E-2
1.657662083E0,5.215825438E-1,-6.805992126E-2,2.168711126E-1
1.667608083E0,9.133092165E-1,1.743362397E-1,5.099123120E-1
1.677553083E0,1.242031336E0,5.249411464E-1,8.687013388E-1
1.687498083E0,1.422798514E0,9.192082286E-1,1.154340386E0
1.697443083E0,1.431769967E0,1.422276974E0,1.235192895E0
1.707389083E0,1.242258906E0,1.984927893E0,1.142625093E0
1.717334083E0,9.353705645E-1,2.361448765E0,9.717906713E-1
1.727279083E0,6.618969440E-1,2.438895702E0,8.031460047E-1
1.737224083E0,4.975143969E-1,2.243973494E0,6.783761382E-1
1.747170083E0,4.535871148E-1,1.780595183E0,5.943549871E-1
1.757115083E0,4.445845485E-1,1.103921652E0,5.103381276E-1
1.767060083E0,3.996856213E-1,3.456530571E-1,4.130717218E-1
1.777005083E0,2.811541557E-1,-5.442124009E-1,3.370808065E-1
1.786951083E0,1.603741497E-1,-1.710377455E0,3.467935026E-1
1.796896083E0,1.021447591E-2,-2.243829727E0,4.330615401E-1
1.806841083E0,-1.009098142E-1,-1.990093112E0,5.147142410E-1
1.816787083E0,-6.474515051E-2,-1.399875879E0,5.524243712E-1
1.826732083E0,1.248620972E-1,-9.044175148E-1,4.458299577E-1
1.836677083E0,3.683373332E-1,-7.537028790E-1,2.794537544E-1
1.846622083E0,6.135133505E-1,-7.754594684E-1,9.334579110E-2
1.856568083E0,8.340345621E-1,-8.387412429E-1,-6.289654225E-2
1.866513083E0,9.917896986E-1,-8.438532948E-1,-1.781879663E-1
1.876458083E0,1.087180138E0,-7.640578151E-1,-2.574257851E-1
1.886403083E0,1.117013812E0,-6.876819730E-1,-2.902383506E-1
1.896349083E0,1.092764854E0,-7.370748520E-1,-2.630341649E-1
1.906294083E0,1.036583662E0,-9.599438906E-1,-1.998996884E-1
1.916239083E0,9.504267573E-1,-1.236390471E0,-1.286135167E-1
1.926184083E0,8.419301510E-1,-1.456184626E0,-6.648819894E-2
1.936130083E0,6.718580127E-1,-1.395219803E0,-8.152189665E-3
1.946075083E0,4.442738891E-1,-9.856268167E-1,4.297161847E-2
1.956020083E0,2.471629530E-1,-6.043050289E-1,1.189526767E-1
1.965965083E0,1.511744261E-1,-4.873797297E-1,2.704243064E-1
1.975911083E0,1.058064103E-1,-5.606020093E-1,4.017397165E-1
1.985856083E0,4.593318701E-2,-6.160989404E-1,4.532971382E-1
1.995801083E0,-5.364267156E-2,-5.979965925E-1,4.583944082E-1
2.005746083E0,-1.968746185E-1,-5.237523913E-1,4.276432395E-1
2.015692083E0,-3.642569482E-1,-4.039266407E-1,3.830113411E-1
2.025637083E0,-5.242816806E-1,-2.431785762E-1,2.937183082E-1
2.035582083E0,-6.536500454E-1,-1.185799241E-1,2.493601292E-1
2.045528083E0,-7.556314468E-1,-3.352947161E-2,2.665999234E-1
2.055473083E0,-8.613485694E-1,-8.125842549E-3,3.299123049E-1
2.065418083E0,-9.626197815E-1,-7.383807749E-2,4.312980175E-1
2.075363083E0,-1.012717247E0,-1.539520919E-1,5.868753195E-1
2.085309083E0,-9.983893037E-1,-1.381275505E-1,7.068797946E-1
2.095254083E0,-9.705736637E-1,-4.681413993E-2,7.429304719E-1
2.105199083E0,-9.702750444E-1,-2.641500905E-3,7.165001035E-1
2.115144083E0,-9.790634513E-1,-2.442935482E-2,6.610800028E-1
2.125090083E0,-9.669088125E-1,-9.924883395E-2,5.797296166E-1
2.135035083E0,-9.215437174E-1,-2.024660408E-1,4.783153832E-1
2.144980083E0,-8.137193322E-1,-2.368700802E-1,3.011881411E-1
2.154925083E0,-6.620976329E-1,-1.614541560E-1,7.226095349E-2
2.164871083E0,-4.904810488E-1,-7.418801636E-2,-2.078609169E-1
2.174816083E0,-3.014914095E-1,-4.356060177E-2,-5.375043154E-1
2.184761083E0,-1.263113618E-1,-4.009971023E-2,-8.627100587E-1
2.194706083E0,1.241029799E-2,6.602273136E-2,-1.034867644E0
2.204652083E0,9.541613609E-2,2.894666195E-1,-9.505345821E-1
2.214597083E0,1.191691384E-1,5.645016432E-1,-7.310568690E-1
2.224542083E0,7.513109595E-2,7.907167077E-1,-5.514588952E-1
2.234488083E0,-2.048374154E-3,9.735727906E-1,-4.656169713E-1
2.244433083E0,-6.913243979E-2,1.047223926E0,-4.280775189E-1
2.254378083E0,-1.617465317E-1,1.050994158E0,-3.770657182E-1
2.264323083E0,-3.058789968E-1,1.058187127E0,-2.506758273E-1
2.274269083E0,-5.285765529E-1,1.073316097E0,-6.908313185E-2
2.284214083E0,-7.839510441E-1,1.021714568E0,1.100444123E-1
2.294159083E0,-1.021894813E0,8.936412930E-1,2.209877074E-1
2.304104083E0,-1.169467330E0,7.421574593E-1,2.909356654E-1
2.314050083E0,-1.184229732E0,6.136474013E-1,3.303746879E-1
2.323995083E0,-1.095890522E0,5.300605893E-1,3.272332251E-1
2.333940083E0,-9.477106929E-1,4.478908479E-1,2.403031290E-1
2.343885083E0,-7.751256227E-1,3.324136734E-1,8.297098428E-2
2.353831083E0,-5.731477141E-1,2.417346388E-1,-1.276456416E-1
2.363776083E0,-3.369903266E-1,2.380459011E-1,-3.544934690E-1
2.373721083E0,-8.701723814E-2,2.665832639E-1,-5.309321880E-1
2.383667083E0,1.805286556E-1,3.120210767E-1,-6.637253165E-1
2.393612083E0,4.354371130E-1,4.127990901E-1,-7.767131329E-1
2.403557083E0,6.134524345E-1,5.995502472E-1,-8.407144547E-1
2.413502083E0,6.882806420E-1,9.194619656E-1,-8.771187663E-1
2.423448083E0,6.645729542E-1,1.275921226E0,-8.961846232E-1
2.433393583E0,5.696216822E-1,1.519147277E0,-8.576529622E-1
2.443338583E0,4.293082952E-1,1.565197706E0,-7.542461753E-1
2.453283583E0,2.658360302E-1,1.499501228E0,-6.312904358E-1
2.463229583E0,6.543440372E-2,1.455311179E0,-5.350156426E-1
2.473174583E0,-1.513887197E-1,1.401230097E0,-4.388355315E-1
2.483119583E0,-2.304899842E-1,1.328043699E0,-3.539775014E-1
2.493064583E0,-6.487466395E-2,1.226376772E0,-2.610288858E-1
2.503010583E0,2.997384965E-1,1.047070265E0,-2.753053606E-1
2.512955583E0,5.447101593E-1,7.940078974E-1,-3.662491143E-1
2.522900583E0,4.534566998E-1,5.048831701E-1,-3.784708977E-1
2.532845583E0,1.251829267E-1,1.322693825E-1,-2.644681633E-1
2.542791583E0,-2.777735889E-1,-2.176358700E-1,-1.171032488E-1
2.552736583E0,-6.362934113E-1,-3.543037176E-1,4.944623448E-3
2.562681583E0,-9.181657434E-1,-1.616676003E-1,1.166860908E-1
2.572627583E0,-1.086979151E0,2.490871847E-1,2.472877800E-1
2.582572583E0,-1.104355931E0,4.632107317E-1,3.336876631E-1
2.592517583E0,-1.021103501E0,3.837633133E-1,3.250579536E-1
2.602462583E0,-7.500609159E-1,-1.103596091E-1,2.187364846E-1
2.612408583E0,-1.969916373E-1,-9.685049653E-1,8.482848294E-3
2.622353583E0,5.084667206E-1,-1.965604663E0,-4.031997621E-1
2.632298583E0,1.037696719E0,-2.645313025E0,-7.358754873E-1
2.642243583E0,1.133524656E0,-2.490939379E0,-7.758533359E-1
2.652189583E0,8.844813704E-1,-1.795703650E0,-5.751447082E-1
2.662134583E0,4.167193770E-1,-1.004558086E0,-2.904430628E-1
2.672079583E0,-1.012321636E-1,-4.411021173E-1,-5.515226349E-2
2.682024583E0,-4.450372458E-1,-1.746113002E-1,1.146320701E-1
2.691970583E0,-4.249037504E-1,-1.486247033E-1,2.145586759E-1
2.701915583E0,-9.632085264E-2,-1.695770025E-1,3.023199439E-1
2.711860583E0,3.595441580E-1,-9.188060462E-2,4.381930828E-1
2.721805583E0,8.300400376E-1,1.909403205E-1,6.612738371E-1
2.731751583E0,1.182422400E0,5.884512067E-1,9.666108489E-1
2.741696583E0,1.360040426E0,1.029781699E0,1.231968164E0
2.751641583E0,1.358194590E0,1.484829426E0,1.275064945E0
2.761587583E0,1.207825541E0,1.811842918E0,1.149432540E0
2.771532583E0,9.753687382E-1,1.996025801E0,9.703552127E-1
2.781477583E0,7.072842121E-1,2.075923204E0,8.212833405E-1
2.791422583E0,4.561384916E-1,1.911505342E0,6.805381775E-1
2.801368583E0,2.833657861E-1,1.345863819E0,5.699833035E-1
2.811313583E0,1.484593749E-1,5.275455117E-1,4.847339094E-1
2.821258583E0,2.866433375E-2,-6.244614720E-1,4.686715007E-1
2.831203583E0,-3.037555143E-2,-2.111625910E0,4.908284545E-1
2.841149583E0,-8.920093626E-2,-3.083045721E0,5.646079183E-1
2.851094583E0,-1.515631080E-1,-3.129823208E0,6.366049051E-1
2.861039583E0,-1.227031425E-1,-2.548033953E0,7.138441801E-1
2.870984583E0,3.772222251E-2,-1.724151134E0,7.105450630E-1
2.880930583E0,2.679556906E-1,-1.152192235E0,5.764897466E-1
2.890875583E0,5.160105228E-1,-1.017591238E0,3.865866363E-1
2.900820583E0,7.453451157E-1,-1.160542488E0,1.907364279E-1
2.910766583E0,9.410989285E-1,-1.425102234E0,3.293307498E-3
2.920711583E0,1.099166870E0,-1.570626736E0,-1.745770723E-1
2.930656583E0,1.212159514E0,-1.529869914E0,-2.931865454E-1
2.940601583E0,1.297619343E0,-1.447739720E0,-3.097656965E-1
2.950547583E0,1.332498550E0,-1.557065606E0,-2.273555100E-1
2.960492583E0,1.197806835E0,-1.807674289E0,-9.781640768E-2
2.970437583E0,8.467268944E-1,-1.778709412E0,3.827129491E-3
2.980382583E0,4.572610259E-1,-1.537062883E0,7.209405303E-2
2.990328583E0,1.585675329E-1,-1.400909901E0,9.505848587E-2
3.000273583E0,1.582401991E-2,-1.286281466E0,1.212188005E-1
3.010218583E0,-1.227446087E-2,-1.096323490E0,1.721450984E-1
3.020163583E0,4.023063928E-2,-8.360672593E-1,2.625490427E-1
3.030109583E0,1.260438263E-1,-6.050907373E-1,3.642511666E-1
3.040054583E0,1.647098213E-1,-4.817048013E-1,4.200983942E-1
3.049999583E0,1.048038825E-1,-4.875856042E-1,4.631987214E-1
3.059944583E0,-4.641384631E-2,-5.816565752E-1,4.657126665E-1
3.069890583E0,-2.559423149E-1,-6.594935656E-1,3.788142502E-1
3.079835583E0,-5.148188472E-1,-6.252993941E-1,2.251831591E-1
3.089780583E0,-7.952345610E-1,-4.798612297E-1,1.388607919E-1
3.099726583E0,-1.055004001E0,-3.681989014E-1,1.201752424E-1
3.109671583E0,-1.244163632E0,-3.430030048E-1,1.858461201E-1
3.119616583E0,-1.365592718E0,-3.653755486E-1,3.285058141E-1
3.129561583E0,-1.412281156E0,-3.264521062E-1,5.098683834E-1
3.139507583E0,-1.348966599E0,-2.274626493E-1,6.795170307E-1
3.149452583E0,-1.183250546E0,-1.109538749E-1,8.332024217E-1
3.159397583E0,-9.669689536E-1,-2.935284376E-2,9.138226509E-1
3.169342583E0,-7.906314731E-1,-4.388251528E-2,8.840293288E-1
3.179288583E0,-6.943467855E-1,-1.341634691E-1,7.354360223E-1
3.189233583E0,-6.510717869E-1,-2.400102615E-1,5.098316669E-1
3.199178583E0,-6.293829679E-1,-3.122522533E-1,2.111970186E-1
3.209123583E0,-6.124072075E-1,-4.213180244E-1,-8.905786276E-2
3.219069583E0,-5.654314160E-1,-5.458335876E-1,-4.098920822E-1
3.229014583E0,-4.764563143E-1,-7.268661857E-1,-7.732295394E-1
3.238959583E0,-3.357286751E-1,-8.353593349E-1,-1.091122389E0
3.248905583E0,-1.934485286E-1,-5.982591510E-1,-1.167912841E0
3.258850583E0,-6.513807178E-2,-1.487128884E-1,-9.864463806E-1
3.268795583E0,1.332717761E-2,3.152678311E-1,-7.537395954E-1
3.278740583E0,9.434998035E-2,6.451180577E-1,-6.185101867E-1
3.288686583E0,9.203436226E-2,7.937927246E-1,-5.645747781E-1
